time (s)	det(V)
7416.097346	-0.075543	
7416.099348	-0.081017	
7416.101345	-0.084394	
7416.103347	-0.088241	
7416.105347	-0.091481	
7416.107346	-0.095074	
7416.109346	-0.098764	
7416.113358	-0.103137	
7416.117357	-0.111281	
7416.119359	-0.118800	
7416.121358	-0.122921	
7416.123358	-0.127265	
7416.125359	-0.131751	
7416.127360	-0.136293	
7416.129358	-0.140606	
7416.133364	-0.146137	
7416.135365	-0.156035	
7416.137366	-0.160613	
7416.139369	-0.165002	
7416.141370	-0.170210	
7416.143369	-0.175911	
7416.145370	-0.181491	
7416.147368	-0.186421	
7416.149368	-0.192154	
7416.153374	-0.198786	
7416.157374	-0.211636	
7416.159374	-0.223827	
7416.161375	-0.230132	
7416.163377	-0.237334	
7416.165382	-0.243540	
7416.167384	-0.251475	
7416.169383	-0.259092	
7416.171381	-0.267322	
7416.175389	-0.274626	
7416.177387	-0.291242	
7416.179388	-0.299057	
7416.181388	-0.306257	
7416.183389	-0.315399	
7416.185389	-0.324348	
7416.187388	-0.333093	
7416.189388	-0.341502	
7416.191388	-0.350772	
7416.193390	-0.360282	
7416.197390	-0.368380	
7416.199389	-0.385859	
7416.201389	-0.393595	
7416.203389	-0.402266	
7416.205388	-0.409680	
7416.207389	-0.416450	
7416.209388	-0.421559	
7416.213387	-0.427677	
7416.217387	-0.441383	
7416.219389	-0.453484	
7416.221392	-0.458588	
7416.223389	-0.462932	
7416.225389	-0.467583	
7416.227388	-0.471343	
7416.229390	-0.474313	
7416.233387	-0.477078	
7416.235389	-0.480562	
7416.239388	-0.481786	
7416.241391	-0.481001	
7416.243388	-0.479448	
7416.245388	-0.477628	
7416.247389	-0.475129	
7416.249388	-0.472278	
7416.251388	-0.468114	
7416.255388	-0.465195	
7416.257388	-0.456524	
7416.259388	-0.450701	
7416.261390	-0.443824	
7416.263395	-0.437658	
7416.265392	-0.431497	
7416.267394	-0.425179	
7416.269394	-0.419447	
7416.271395	-0.414565	
7416.275395	-0.408645	
7416.279393	-0.391344	
7416.281395	-0.373506	
7416.283395	-0.363937	
7416.285397	-0.353729	
7416.287395	-0.344446	
7416.289395	-0.334763	
7416.291394	-0.324333	
7416.293400	-0.314849	
7416.297404	-0.303545	
7416.299404	-0.283398	
7416.301405	-0.270353	
7416.303405	-0.259232	
7416.305404	-0.249314	
7416.307404	-0.238780	
7416.309405	-0.226058	
7416.311404	-0.214311	
7416.313406	-0.204328	
7416.317404	-0.193545	
7416.319405	-0.169248	
7416.321405	-0.158347	
7416.323404	-0.146443	
7416.325405	-0.133599	
7416.327404	-0.121266	
7416.329405	-0.109104	
7416.331405	-0.097395	
7416.333404	-0.084855	
7416.335412	-0.070869	
7416.339417	-0.058575	
7416.341417	-0.032763	
7416.343416	-0.017239	
7416.345417	-0.002948	
7416.347416	0.009764	
7416.349417	0.023919	
7416.351416	0.038738	
7416.355415	0.051804	
7416.357416	0.077557	
7416.361417	0.092153	
7416.363417	0.119866	
7416.365423	0.132742	
7416.367421	0.147041	
7416.369421	0.160424	
7416.371420	0.172922	
7416.373420	0.184656	
7416.377419	0.196512	
7416.379420	0.222386	
7416.381420	0.233688	
7416.383420	0.245519	
7416.385425	0.258571	
7416.389435	0.279824	
7416.391435	0.290395	
7416.393436	0.301941	
7416.397435	0.320773	
7416.401435	0.329670	
7416.403436	0.350443	
7416.405435	0.357568	
7416.407436	0.364671	
7416.409436	0.373652	
7416.411436	0.382907	
7416.415434	0.388787	
7416.419433	0.400344	
7416.421436	0.410413	
7416.423435	0.414262	
7416.427434	0.426647	
7416.429436	0.431331	
7416.431435	0.435408	
7416.435434	0.439613	
7416.439434	0.448327	
7416.441435	0.454482	
7416.443436	0.458546	
7416.445436	0.461705	
7416.447436	0.463551	
7416.449434	0.464875	
7416.451436	0.467256	
7416.453435	0.468378	
7416.457437	0.467877	
7416.461437	0.467493	
7416.463438	0.466905	
7416.465438	0.464887	
7416.467437	0.462534	
7416.469437	0.460283	
7416.471438	0.457187	
7416.473436	0.452613	
7416.477447	0.448078	
7416.479448	0.439297	
7416.481447	0.433488	
7416.483448	0.428107	
7416.485447	0.422724	
7416.487449	0.416402	
7416.489448	0.409968	
7416.491448	0.404628	
7416.493447	0.399308	
7416.495449	0.391214	
7416.499460	0.383222	
7416.501461	0.365401	
7416.503461	0.356444	
7416.505461	0.347380	
7416.507462	0.338193	
7416.509462	0.328115	
7416.511462	0.318890	
7416.513461	0.309640	
7416.515461	0.299227	
7416.517465	0.289212	
7416.521461	0.279432	
7416.523462	0.261219	
7416.525463	0.252131	
7416.527462	0.243630	
7416.529461	0.235615	
7416.531462	0.226631	
7416.533461	0.218283	
7416.537460	0.209907	
7416.541459	0.193657	
7416.543464	0.178821	
7416.545468	0.172788	
7416.547469	0.165799	
7416.549469	0.159333	
7416.551468	0.152999	
7416.553469	0.147211	
7416.555469	0.140930	
7416.557469	0.134703	
7416.561468	0.129408	
7416.563469	0.119480	
7416.565470	0.115703	
7416.567470	0.111034	
7416.569470	0.106490	
7416.571471	0.102109	
7416.573470	0.098776	
7416.575470	0.094816	
7416.577469	0.090272	
7416.581471	0.087048	
7416.583472	0.080575	
7416.585470	0.077893	
7416.587471	0.075281	
7416.589472	0.072721	
7416.591472	0.069988	
7416.593472	0.067399	
7416.597469	0.064815	
7416.599472	0.059844	
7416.601471	0.057124	
7416.603471	0.054646	
7416.605472	0.053064	
7416.607473	0.051442	
7416.609472	0.049815	
7416.611471	0.047473	
7416.613472	0.045516	
7416.617470	0.044581	
7416.621469	0.039448	
7416.623472	0.036278	
7416.625472	0.035082	
7416.627474	0.033279	
7416.629478	0.032101	
7416.631478	0.030526	
7416.633477	0.029265	
7416.635478	0.027325	
7416.639477	0.025469	
7416.643476	0.022974	
7416.645477	0.021124	
7416.647480	0.020716	
7416.649477	0.019146	
7416.651477	0.018077	
7416.653477	0.016648	
7416.655477	0.015510	
7416.659482	0.014122	
7416.663481	0.012056	
7416.665483	0.011347	
7416.667482	0.010894	
7416.669481	0.009436	
7416.671482	0.008454	
7416.673482	0.008101	
7416.675482	0.007422	
7416.679489	0.005928	
7416.681489	0.005727	
7416.683490	0.004768	
7416.685490	0.004512	
7416.687490	0.004540	
7416.689489	0.004508	
7416.705413	0.004006	
7416.707414	0.004569	
7416.711417	0.004685	
7416.713418	0.004623	
7416.715417	0.005575	
7416.717417	0.004743	
7416.719418	0.004327	
7416.723417	0.005124	
7416.725418	0.003546	
7416.727418	0.003433	
7416.731418	0.003810	
7416.733417	0.004022	
7416.735417	0.004146	
7416.737418	0.004226	
7416.739418	0.004188	
7416.743416	0.004382	
7416.745418	0.003001	
7416.747417	0.003045	
7416.751417	0.003620	
7416.753418	0.003671	
7416.755417	0.003454	
7416.757418	0.003735	
7416.759418	0.003238	
7416.763416	0.003288	
7416.765417	0.002331	
7416.767417	0.002518	
7416.771416	0.002244	
7416.773417	0.002541	
7416.775418	0.002840	
7416.777416	0.002721	
7416.779418	0.002524	
7416.783416	0.002802	
7416.785418	0.001339	
7416.787418	0.001286	
7416.791418	0.001586	
7416.793418	0.001803	
7416.795419	0.001880	
7416.797417	0.002433	
7416.799425	0.002193	
7416.803428	0.002192	
7416.805430	0.000750	
7416.807430	0.000862	
7416.811428	0.000301	
7416.813429	0.001425	
7416.815430	0.000729	
7416.817428	0.001409	
7416.819429	0.000962	
7416.823428	0.001356	
7416.825430	0.000751	
7416.827429	-0.000156	
7416.831430	0.000584	
7416.833430	0.000826	
7416.835430	0.001281	
7416.837430	0.001215	
7416.839430	0.001058	
7416.843428	0.001187	
7416.845430	0.000701	
7416.847430	0.001080	
7416.851429	0.000224	
7416.853430	0.001313	
7416.855429	0.001604	
7416.857430	0.001606	
7416.859430	0.001519	
7416.863428	0.001968	
7416.865429	0.001206	
7416.867430	0.001130	
7416.871429	0.001221	
7416.873430	0.001905	
7416.875430	0.001963	
7416.877430	0.001907	
7416.879430	0.002520	
7416.883428	0.002351	
7416.885430	0.001634	
7416.887437	0.001691	
7416.891441	0.001724	
7416.893441	0.002743	
7416.895442	0.002378	
7416.897442	0.003406	
7416.899442	0.002882	
7416.903439	0.003160	
7416.905441	0.002198	
7416.907441	0.001919	
7416.911442	0.002497	
7416.913441	0.003262	
7416.915442	0.002993	
7416.917442	0.003375	
7416.919442	0.002699	
7416.923440	0.002993	
7416.925441	0.002176	
7416.927441	0.001497	
7416.931441	0.001762	
7416.933441	0.002351	
7416.935442	0.002845	
7416.937442	0.002334	
7416.939441	0.001978	
7416.941443	0.002707	
7416.943442	0.001725	
7416.945441	0.001185	
7416.949440	0.001377	
7416.951442	0.001290	
7416.953441	0.001729	
7416.955440	0.001647	
7416.957441	0.002192	
7416.959440	0.001352	
7416.961440	0.001869	
7416.965439	0.001825	
7416.969439	0.000517	
7416.971440	0.000742	
7416.973440	0.000828	
7416.975441	0.001547	
7416.977444	0.000829	
7416.979443	0.001249	
7416.981442	0.001131	
7416.983443	0.001026	
7416.987443	0.000262	
7416.991442	0.000221	
7416.993443	0.000711	
7416.995443	0.001084	
7416.997442	0.000929	
7416.999442	0.000839	
7417.001442	0.001382	
7417.003442	0.000564	
7417.005445	-0.000240	
7417.009444	0.000019	
7417.011445	-0.000113	
7417.013445	0.000853	
7417.015446	0.000659	
7417.017445	0.000623	
7417.019444	0.000238	
7417.021444	0.000191	
7417.023446	0.000165	
7417.025445	-0.000742	
7417.029449	-0.001278	
7417.031450	-0.001297	
7417.033451	-0.000839	
7417.035450	-0.001140	
7417.037450	-0.001425	
7417.039452	-0.001703	
7417.041451	-0.001618	
7417.045449	-0.002333	
7417.049448	-0.003786	
7417.051451	-0.004427	
7417.053451	-0.004607	
7417.055450	-0.004931	
7417.057451	-0.005384	
7417.059450	-0.006380	
7417.061450	-0.006683	
7417.065448	-0.007606	
7417.067450	-0.009915	
7417.071450	-0.010119	
7417.073450	-0.011492	
7417.075452	-0.012064	
7417.077451	-0.013338	
7417.079457	-0.014211	
7417.081458	-0.014817	
7417.085455	-0.016227	
7417.089455	-0.018849	
7417.091457	-0.020804	
7417.093456	-0.022257	
7417.095457	-0.022902	
7417.099454	-0.025813	
7417.101456	-0.026711	
7417.103456	-0.028455	
7417.107457	-0.031043	
7417.109458	-0.033665	
7417.111457	-0.034841	
7417.113457	-0.035981	
7417.115456	-0.037262	
7417.117456	-0.039028	
7417.119456	-0.041108	
7417.121456	-0.042883	
7417.123456	-0.044463	
7417.125455	-0.046947	
7417.129454	-0.049591	
7417.131457	-0.053234	
7417.133457	-0.054794	
7417.135455	-0.057198	
7417.137457	-0.059842	
7417.139456	-0.061899	
7417.141457	-0.064202	
7417.143456	-0.067321	
7417.145455	-0.070451	
7417.149454	-0.073627	
7417.151457	-0.079744	
7417.153457	-0.082363	
7417.155457	-0.085522	
7417.157456	-0.088744	
7417.159457	-0.092499	
7417.161456	-0.096905	
7417.165454	-0.100032	
7417.169455	-0.110007	
7417.171456	-0.119281	
7417.173459	-0.123613	
7417.175455	-0.129375	
7417.177457	-0.134357	
7417.179459	-0.140808	
7417.181459	-0.145836	
7417.183457	-0.152915	
7417.187464	-0.159847	
7417.191464	-0.173852	
7417.193465	-0.188133	
7417.195467	-0.195811	
7417.197464	-0.203882	
7417.199466	-0.212271	
7417.201465	-0.221191	
7417.203464	-0.230521	
7417.207464	-0.240395	
7417.211464	-0.259763	
7417.213466	-0.278915	
7417.217463	-0.300194	
7417.219465	-0.310270	
7417.221464	-0.322003	
7417.225462	-0.333179	
7417.229464	-0.356093	
7417.231465	-0.378462	
7417.233465	-0.389950	
7417.235465	-0.400771	
7417.237464	-0.411136	
7417.239465	-0.419768	
7417.241464	-0.428295	
7417.243465	-0.439016	
7417.247464	-0.450058	
7417.251464	-0.471033	
7417.253465	-0.489902	
7417.255465	-0.499233	
7417.257464	-0.508728	
7417.259465	-0.517576	
7417.261464	-0.525253	
7417.265463	-0.533634	
7417.267464	-0.548903	
7417.271465	-0.554693	
7417.273465	-0.565978	
7417.275464	-0.570278	
7417.277465	-0.574136	
7417.279464	-0.577567	
7417.281468	-0.581401	
7417.285466	-0.584411	
7417.287468	-0.586973	
7417.291469	-0.588876	
7417.293469	-0.586780	
7417.295469	-0.584780	
7417.297469	-0.584095	
7417.299468	-0.582603	
7417.301468	-0.578225	
7417.305467	-0.574939	
7417.309467	-0.569029	
7417.311468	-0.556991	
7417.313469	-0.552346	
7417.315471	-0.547037	
7417.317468	-0.539687	
7417.319469	-0.531967	
7417.321469	-0.524780	
7417.323469	-0.517724	
7417.327468	-0.510124	
7417.331469	-0.490513	
7417.333469	-0.472119	
7417.335468	-0.459529	
7417.337469	-0.448720	
7417.339468	-0.439660	
7417.341469	-0.428208	
7417.343468	-0.418280	
7417.347468	-0.408274	
7417.349469	-0.385424	
7417.351469	-0.371404	
7417.353472	-0.356591	
7417.355470	-0.345053	
7417.357468	-0.331499	
7417.359468	-0.317844	
7417.361468	-0.302213	
7417.363468	-0.288848	
7417.365468	-0.277874	
7417.369468	-0.263677	
7417.371470	-0.235319	
7417.373469	-0.222365	
7417.375468	-0.208526	
7417.377468	-0.193211	
7417.379471	-0.179699	
7417.381473	-0.166998	
7417.383475	-0.153943	
7417.385474	-0.138366	
7417.387476	-0.125582	
7417.391480	-0.112359	
7417.393481	-0.083448	
7417.395481	-0.068693	
7417.397480	-0.056518	
7417.399481	-0.043265	
7417.401481	-0.028938	
7417.403481	-0.014442	
7417.407480	-0.001297	
7417.411478	0.025638	
7417.413480	0.050752	
7417.415481	0.063024	
7417.417480	0.076501	
7417.419481	0.089983	
7417.421481	0.101802	
7417.423482	0.113300	
7417.425479	0.126380	
7417.429480	0.138476	
7417.431481	0.162421	
7417.433481	0.175893	
7417.435480	0.189912	
7417.437481	0.202855	
7417.439479	0.214933	
7417.441480	0.228267	
7417.443481	0.242687	
7417.445480	0.255837	
7417.449486	0.266855	
7417.453481	0.294414	
7417.455482	0.320934	
7417.457483	0.334330	
7417.459482	0.348337	
7417.461480	0.361458	
7417.463481	0.373682	
7417.465482	0.385263	
7417.469480	0.397179	
7417.473481	0.415535	
7417.475483	0.438432	
7417.477487	0.450346	
7417.479488	0.460953	
7417.481490	0.470936	
7417.483489	0.481062	
7417.485489	0.492150	
7417.489493	0.499946	
7417.493491	0.517623	
7417.495491	0.533986	
7417.497492	0.540487	
7417.499492	0.547113	
7417.501492	0.553118	
7417.503492	0.557971	
7417.507490	0.560995	
7417.509492	0.568109	
7417.513491	0.569450	
7417.515492	0.572634	
7417.517491	0.572749	
7417.519492	0.571569	
7417.521492	0.569690	
7417.523492	0.567942	
7417.527489	0.565552	
7417.531489	0.557508	
7417.533492	0.548474	
7417.535491	0.543867	
7417.537493	0.538294	
7417.539492	0.532276	
7417.541490	0.525265	
7417.543492	0.518357	
7417.545491	0.511981	
7417.549493	0.502955	
7417.553492	0.487630	
7417.555493	0.471352	
7417.557493	0.463575	
7417.559495	0.454779	
7417.561499	0.445916	
7417.563501	0.437123	
7417.567504	0.428351	
7417.571504	0.411291	
7417.573506	0.397123	
7417.575506	0.390088	
7417.577506	0.381124	
7417.579506	0.371682	
7417.581505	0.363191	
7417.583506	0.355040	
7417.585505	0.345472	
7417.589516	0.335535	
7417.593516	0.318799	
7417.595515	0.301813	
7417.597516	0.294173	
7417.599516	0.285909	
7417.601516	0.277396	
7417.603516	0.269011	
7417.605516	0.261093	
7417.609519	0.252983	
7417.613520	0.236870	
7417.615520	0.222916	
7417.617519	0.215436	
7417.619520	0.207871	
7417.621519	0.200699	
7417.623520	0.194165	
7417.627519	0.187327	
7417.631517	0.173238	
7417.633520	0.160765	
7417.635519	0.155456	
7417.637520	0.149446	
7417.639519	0.143977	
7417.641519	0.138944	
7417.643520	0.132756	
7417.645519	0.127274	
7417.649519	0.121568	
7417.651521	0.112586	
7417.653519	0.107153	
7417.655520	0.103309	
7417.657520	0.099344	
7417.659520	0.095290	
7417.661519	0.090585	
7417.663520	0.087069	
7417.665520	0.083462	
7417.669520	0.079108	
7417.673519	0.071823	
7417.675519	0.066628	
7417.677520	0.063653	
7417.679520	0.060589	
7417.681519	0.058414	
7417.683520	0.056025	
7417.685520	0.053373	
7417.689519	0.050416	
7417.693518	0.046583	
7417.695520	0.042990	
7417.697520	0.042279	
7417.699519	0.040163	
7417.701520	0.038526	
7417.703519	0.036934	
7417.705520	0.035392	
7417.709520	0.033425	
7417.711521	0.030948	
7417.713520	0.029328	
7417.715524	0.028906	
7417.717522	0.028193	
7417.719521	0.026942	
7417.721522	0.025671	
7417.723522	0.025301	
7417.725522	0.024548	
7417.729523	0.022085	
7417.733525	0.021511	
7417.735523	0.020373	
7417.737530	0.019560	
7417.739531	0.019282	
7417.741531	0.018403	
7417.743532	0.017421	
7417.745532	0.017139	
7417.749534	0.015523	
7417.753533	0.014954	
7417.767904	0.013986	
7417.769908	0.013475	
7417.773911	0.013164	
7417.775911	0.012725	
7417.777912	0.012197	
7417.779911	0.011898	
7417.781911	0.011364	
7417.785908	0.011594	
7417.787911	0.009309	
7417.789910	0.009095	
7417.793911	0.008541	
7417.795910	0.008851	
7417.797911	0.008800	
7417.799911	0.007712	
7417.801911	0.007774	
7417.805909	0.007640	
7417.807911	0.006268	
7417.809911	0.005704	
7417.813910	0.005199	
7417.815911	0.005634	
7417.817910	0.005616	
7417.819911	0.005253	
7417.821910	0.005344	
7417.825910	0.004368	
7417.827911	0.003720	
7417.829910	0.003503	
7417.833910	0.003439	
7417.835909	0.003669	
7417.837910	0.004353	
7417.839910	0.003998	
7417.841910	0.003985	
7417.845909	0.003491	
7417.847911	0.003356	
7417.849909	0.002923	
7417.853910	0.003427	
7417.855911	0.003609	
7417.857911	0.004196	
7417.859910	0.003959	
7417.861911	0.003837	
7417.865908	0.004768	
7417.867911	0.003454	
7417.869910	0.003067	
7417.873909	0.002733	
7417.875911	0.003987	
7417.877911	0.003940	
7417.879910	0.004043	
7417.881910	0.004187	
7417.883910	0.004196	
7417.885911	0.003315	
7417.887910	0.003053	
7417.891909	0.003222	
7417.893911	0.002792	
7417.895911	0.003630	
7417.897910	0.004364	
7417.899911	0.003799	
7417.901910	0.004089	
7417.903910	0.003767	
7417.907909	0.003986	
7417.909910	0.003024	
7417.911911	0.003404	
7417.913911	0.003024	
7417.915911	0.003605	
7417.917911	0.003825	
7417.919912	0.003389	
7417.921911	0.003296	
7417.923911	0.003429	
7417.927909	0.003119	
7417.931908	0.002148	
7417.933911	0.002183	
7417.935911	0.002492	
7417.937914	0.002509	
7417.939913	0.002373	
7417.941913	0.002492	
7417.943913	0.002047	
7417.945913	0.002226	
7417.949911	0.001214	
7417.953912	0.001410	
7417.955912	0.001688	
7417.957914	0.002071	
7417.959912	0.001566	
7417.961913	0.002181	
7417.963913	0.001579	
7417.967910	0.001943	
7417.969912	0.000477	
7417.973912	0.000613	
7417.975913	0.000911	
7417.977913	0.001460	
7417.979911	0.001443	
7417.981912	0.001522	
7417.983912	0.001221	
7417.987911	0.001188	
7417.991911	0.000410	
7417.993912	0.000187	
7417.995914	0.001157	
7417.997914	0.001392	
7417.999912	0.000912	
7418.001912	0.001484	
7418.003913	0.000963	
7418.005913	0.001259	
7418.009911	0.000592	
7418.011912	0.000385	
7418.013912	0.000576	
7418.015917	0.001468	
7418.017913	0.001407	
7418.019915	0.001317	
7418.021915	0.001259	
7418.023914	0.000910	
7418.025917	0.001468	
7418.027917	0.000138	
7418.031916	-0.000075	
7418.033916	-0.000316	
7418.035917	0.000062	
7418.037916	-0.000153	
7418.039916	0.000319	
7418.041920	-0.000311	
7418.043916	-0.000824	
7418.045916	-0.000840	
7418.047916	-0.001662	
7418.051920	-0.002321	
7418.053922	-0.003124	
7418.055922	-0.002736	
7418.057923	-0.002619	
7418.059921	-0.003217	
7418.061922	-0.003554	
7418.063922	-0.003744	
7418.067921	-0.004111	
7418.071920	-0.006468	
7418.073922	-0.007155	
7418.075923	-0.007138	
7418.077922	-0.008186	
7418.079924	-0.008528	
7418.081922	-0.009168	
7418.083922	-0.009892	
7418.087922	-0.011033	
7418.091920	-0.012835	
7418.093922	-0.014481	
7418.095922	-0.014844	
7418.097924	-0.015242	
7418.099922	-0.016266	
7418.101922	-0.018226	
7418.103922	-0.018040	
7418.105922	-0.019264	
7418.109922	-0.020521	
7418.113922	-0.022533	
7418.115922	-0.023510	
7418.117923	-0.024396	
7418.119922	-0.025732	
7418.121924	-0.026920	
7418.123925	-0.027647	
7418.125922	-0.029377	
7418.129922	-0.031386	
7418.133921	-0.033259	
7418.135922	-0.035455	
7418.137921	-0.036759	
7418.139922	-0.038228	
7418.141922	-0.039609	
7418.143922	-0.041672	
7418.145922	-0.043169	
7418.149925	-0.044935	
7418.153926	-0.048617	
7418.155926	-0.052134	
7418.157927	-0.053779	
7418.159925	-0.056488	
7418.161928	-0.058517	
7418.163926	-0.060316	
7418.165925	-0.063115	
7418.169926	-0.066174	
7418.173926	-0.071810	
7418.175927	-0.077017	
7418.177926	-0.080079	
7418.179928	-0.083166	
7418.181927	-0.086793	
7418.183926	-0.090276	
7418.185926	-0.094276	
7418.189926	-0.099670	
7418.193926	-0.112430	
7418.195926	-0.117095	
7418.197926	-0.120952	
7418.199927	-0.126613	
7418.201927	-0.131817	
7418.203926	-0.137311	
7418.205926	-0.143374	
7418.207925	-0.148954	
7418.211926	-0.154955	
7418.213926	-0.167285	
7418.215926	-0.173353	
7418.217926	-0.179272	
7418.219926	-0.186895	
7418.221926	-0.193710	
7418.223926	-0.200680	
7418.225928	-0.207352	
7418.227932	-0.216253	
7418.229929	-0.223400	
7418.233930	-0.230920	
7418.235930	-0.246488	
7418.237930	-0.253893	
7418.239930	-0.262205	
7418.241930	-0.269427	
7418.243930	-0.278752	
7418.245929	-0.285918	
7418.249929	-0.294608	
7418.253928	-0.311112	
7418.255930	-0.327289	
7418.257930	-0.334387	
7418.259930	-0.341957	
7418.261931	-0.349217	
7418.263930	-0.356951	
7418.265930	-0.364072	
7418.267930	-0.370839	
