time (s)	det(V)
402362.457462	-0.344643	
402362.459465	-0.364564	
402362.461461	-0.375073	
402362.463463	-0.385511	
402362.465462	-0.396464	
402362.467463	-0.407505	
402362.469463	-0.416805	
402362.473463	-0.424772	
402362.475462	-0.445747	
402362.477463	-0.456800	
402362.479462	-0.467241	
402362.481463	-0.477770	
402362.483463	-0.489004	
402362.485462	-0.500934	
402362.487463	-0.511962	
402362.489463	-0.523165	
402362.493471	-0.536947	
402362.497471	-0.560299	
402362.499471	-0.582834	
402362.501471	-0.595024	
402362.503470	-0.607426	
402362.505470	-0.619910	
402362.507471	-0.632098	
402362.509471	-0.644364	
402362.513477	-0.659144	
402362.515476	-0.685171	
402362.517476	-0.698557	
402362.519478	-0.712033	
402362.521477	-0.724612	
402362.523476	-0.737432	
402362.525477	-0.751886	
402362.527476	-0.765803	
402362.529475	-0.779479	
402362.533475	-0.795099	
402362.537475	-0.823501	
402362.539477	-0.849719	
402362.541479	-0.863117	
402362.543475	-0.877310	
402362.545477	-0.891636	
402362.547476	-0.904726	
402362.549477	-0.917473	
402362.553477	-0.931587	
402362.555476	-0.955583	
402362.557477	-0.967100	
402362.559480	-0.976394	
402362.561490	-0.986707	
402362.563490	-0.996233	
402362.565490	-1.004454	
402362.567491	-1.011758	
402362.571488	-1.019041	
402362.575489	-1.031780	
402362.577490	-1.038123	
402362.579491	-1.040786	
402362.581491	-1.041357	
402362.583491	-1.039050	
402362.585492	-1.038581	
402362.587490	-1.037576	
402362.591488	-1.033171	
402362.595488	-1.023490	
402362.597491	-1.011349	
402362.599490	-0.998747	
402362.601490	-0.989881	
402362.603491	-0.982152	
402362.605490	-0.970823	
402362.607490	-0.957377	
402362.611489	-0.944547	
402362.615489	-0.921782	
402362.617491	-0.888660	
402362.619490	-0.875420	
402362.621491	-0.860292	
402362.623491	-0.841138	
402362.625491	-0.822254	
402362.627489	-0.806974	
402362.631489	-0.792918	
402362.635488	-0.753268	
402362.637491	-0.722123	
402362.639491	-0.700147	
402362.641491	-0.678240	
402362.643491	-0.661139	
402362.645491	-0.647308	
402362.647491	-0.628307	
402362.649491	-0.605816	
402362.653499	-0.589666	
402362.657498	-0.557284	
402362.659500	-0.516322	
402362.661500	-0.501671	
402362.663502	-0.486924	
402362.665500	-0.465153	
402362.667501	-0.445470	
402362.669499	-0.432752	
402362.673501	-0.421969	
402362.677499	-0.383735	
402362.679501	-0.353928	
402362.681501	-0.332937	
402362.683501	-0.311699	
402362.685501	-0.294812	
402362.687501	-0.279345	
402362.689500	-0.260179	
402362.693507	-0.239032	
402362.697507	-0.205290	
402362.699508	-0.162558	
402362.701508	-0.143349	
402362.703510	-0.127491	
402362.705508	-0.108077	
402362.707509	-0.086225	
402362.709509	-0.065992	
402362.713510	-0.050145	
402362.717508	-0.009951	
402362.719509	0.029982	
402362.721508	0.048480	
402362.723509	0.069889	
402362.725508	0.092225	
402362.727508	0.111167	
402362.729509	0.126395	
402362.733509	0.146217	
402362.735509	0.188889	
402362.737508	0.205290	
402362.739509	0.227444	
402362.741508	0.250547	
402362.743517	0.270508	
402362.745519	0.285560	
402362.747517	0.304954	
402362.749517	0.329262	
402362.753517	0.346461	
402362.755517	0.379378	
402362.757518	0.398993	
402362.759521	0.415119	
402362.761524	0.430575	
402362.763523	0.445854	
402362.765523	0.466686	
402362.767522	0.486167	
402362.769523	0.501180	
402362.771524	0.515290	
402362.775521	0.534740	
402362.777523	0.570276	
402362.779523	0.586449	
402362.781523	0.605757	
402362.783523	0.626066	
402362.785524	0.642386	
402362.787524	0.657810	
402362.791521	0.677737	
402362.793524	0.714110	
402362.795524	0.729596	
402362.797523	0.747452	
402362.799526	0.769193	
402362.801524	0.787093	
402362.803523	0.802967	
402362.805524	0.820951	
402362.807522	0.841199	
402362.811522	0.859409	
402362.815521	0.887430	
402362.817523	0.923663	
402362.819525	0.938939	
402362.821524	0.952657	
402362.823524	0.969648	
402362.825525	0.984860	
402362.827523	0.998294	
402362.829524	1.008884	
402362.833523	1.020717	
402362.835524	1.044867	
402362.837523	1.053519	
402362.839526	1.065044	
402362.841525	1.075378	
402362.843529	1.084098	
402362.845533	1.087629	
402362.847533	1.093273	
402362.849533	1.099408	
402362.853537	1.100255	
402362.857537	1.100866	
402362.859541	1.101337	
402362.871936	1.060449	
402362.873938	1.067551	
402362.877937	1.043776	
402362.879936	1.025636	
402362.881944	1.002408	
402362.883941	0.998563	
402362.885942	0.986570	
402362.889941	0.956575	
402362.891942	0.935117	
402362.893942	0.912472	
402362.897941	0.884956	
402362.899942	0.863214	
402362.901941	0.838719	
402362.903943	0.814657	
402362.905942	0.803008	
402362.909940	0.788070	
402362.911942	0.744390	
402362.913941	0.730045	
402362.917941	0.713910	
402362.919942	0.677584	
402362.921941	0.665619	
402362.923942	0.648300	
402362.925941	0.629534	
402362.929940	0.617320	
402362.931942	0.586136	
402362.933941	0.569154	
402362.937942	0.558643	
402362.939942	0.532682	
402362.941941	0.518379	
402362.943942	0.507999	
402362.945942	0.496423	
402362.949941	0.481719	
402362.951942	0.457313	
402362.953942	0.445584	
402362.957941	0.433517	
402362.959942	0.414235	
402362.961941	0.405556	
402362.963943	0.395844	
402362.965942	0.386760	
402362.969940	0.375807	
402362.971942	0.354445	
402362.973942	0.343722	
402362.977941	0.334973	
402362.979941	0.316047	
402362.981941	0.307107	
402362.983940	0.295973	
402362.985942	0.286998	
402362.989940	0.278388	
402362.991941	0.258024	
402362.993941	0.248906	
402362.997941	0.241233	
402362.999942	0.224027	
402363.001942	0.215672	
402363.003942	0.208536	
402363.005941	0.201307	
402363.009941	0.192543	
402363.011942	0.176596	
402363.013942	0.168766	
402363.017941	0.161051	
402363.019941	0.149804	
402363.021942	0.144464	
402363.023942	0.136628	
402363.025942	0.131426	
402363.029940	0.127225	
402363.031941	0.114145	
402363.033942	0.108823	
402363.037941	0.105203	
402363.039942	0.097502	
402363.041941	0.094259	
402363.043943	0.091122	
402363.045941	0.087000	
402363.049940	0.082622	
402363.051942	0.074630	
402363.053943	0.071879	
402363.057943	0.070014	
402363.059944	0.065612	
402363.061944	0.064223	
402363.063943	0.061275	
402363.065943	0.058244	
402363.069940	0.056695	
402363.071944	0.051882	
402363.073943	0.049548	
402363.077944	0.048719	
402363.079943	0.047612	
402363.081944	0.046287	
402363.083944	0.044324	
402363.085945	0.043339	
402363.087943	0.043467	
402363.089943	0.041446	
402363.091944	0.039752	
402363.095951	0.038969	
402363.097954	0.036400	
402363.099954	0.036865	
402363.101953	0.036594	
402363.103953	0.035457	
402363.105954	0.034810	
402363.107954	0.033773	
402363.109954	0.033062	
402363.111954	0.031790	
402363.115950	0.028965	
402363.117953	0.026730	
402363.119952	0.026330	
402363.121953	0.026410	
402363.123953	0.024976	
402363.125952	0.024007	
402363.127953	0.024213	
402363.131951	0.022609	
402363.135950	0.018520	
402363.137952	0.017548	
402363.139953	0.017800	
402363.141952	0.017011	
402363.143952	0.016555	
402363.145952	0.015653	
402363.147958	0.014194	
402363.149961	0.013646	
402363.153960	0.011158	
402363.157960	0.010407	
402363.159961	0.010263	
402363.161961	0.010273	
402363.163960	0.008328	
402363.165960	0.007698	
402363.167962	0.006927	
402363.169961	0.005818	
402363.173960	0.004609	
402363.177960	0.003381	
402363.179961	0.004003	
402363.181962	0.003473	
402363.183960	0.002470	
402363.185960	0.002143	
402363.187960	0.002607	
402363.189960	0.002459	
402363.193960	0.000888	
402363.197960	0.001089	
402363.199962	0.001900	
402363.201962	0.002377	
402363.203961	0.001996	
402363.205960	0.002340	
402363.207961	0.002529	
402363.209960	0.003068	
402363.213961	0.002195	
402363.217961	0.001592	
402363.219960	0.002700	
402363.221961	0.004010	
402363.223961	0.003737	
402363.225961	0.003927	
402363.227961	0.004902	
402363.229960	0.003866	
402363.231961	0.002739	
402363.235960	0.002186	
402363.237962	0.003058	
402363.239961	0.004092	
402363.241960	0.004535	
402363.243960	0.005301	
402363.245963	0.004435	
402363.247962	0.004355	
402363.249960	0.004789	
402363.251960	0.002707	
402363.255960	0.002464	
402363.257961	0.002259	
402363.259961	0.004067	
402363.261960	0.005125	
402363.263960	0.004264	
402363.265960	0.003581	
402363.267961	0.002935	
402363.271959	0.002769	
402363.275960	0.000339	
402363.277961	0.000415	
402363.279961	0.000836	
402363.281961	0.000667	
402363.283960	-0.000645	
402363.285960	-0.001221	
402363.287962	-0.000716	
402363.289961	-0.001698	
402363.293962	-0.004463	
402363.297964	-0.004101	
402363.299966	-0.004177	
402363.301966	-0.004395	
402363.303965	-0.004405	
402363.305965	-0.004753	
402363.307964	-0.005499	
402363.309964	-0.005781	
402363.313965	-0.006540	
402363.317964	-0.007685	
402363.319967	-0.007966	
402363.321964	-0.006989	
402363.323965	-0.007172	
402363.325964	-0.008286	
402363.327965	-0.007641	
402363.329965	-0.008467	
402363.333964	-0.010879	
402363.335964	-0.011281	
402363.337964	-0.010640	
402363.339965	-0.010676	
402363.341965	-0.010261	
402363.343964	-0.009106	
402363.345966	-0.009986	
402363.347968	-0.010546	
402363.349966	-0.010083	
402363.351968	-0.011880	
402363.355967	-0.012437	
402363.357968	-0.012353	
402363.359968	-0.011243	
402363.361966	-0.010462	
402363.363966	-0.011111	
402363.365970	-0.011460	
402363.367968	-0.012813	
402363.369967	-0.011923	
402363.371968	-0.013388	
402363.375967	-0.014833	
402363.377969	-0.015595	
402363.379969	-0.014843	
402363.381968	-0.015319	
402363.383969	-0.016933	
402363.385969	-0.017662	
402363.387968	-0.017936	
402363.391968	-0.019725	
402363.393969	-0.022690	
402363.395968	-0.023993	
402363.397968	-0.026086	
402363.399980	-0.026701	
402363.401974	-0.027875	
402363.403975	-0.029090	
402363.405974	-0.030509	
402363.407974	-0.032372	
402363.409974	-0.033775	
402363.413974	-0.036054	
402363.417974	-0.041543	
402363.419974	-0.044789	
402363.421975	-0.046419	
402363.423974	-0.048683	
402363.425976	-0.051701	
402363.427975	-0.053767	
402363.429974	-0.056561	
402363.433973	-0.061533	
402363.437974	-0.067635	
402363.439975	-0.072047	
402363.441976	-0.074704	
402363.443974	-0.077622	
402363.445979	-0.080960	
402363.447978	-0.084517	
402363.449974	-0.089138	
402363.453981	-0.093128	
402363.457981	-0.099494	
402363.459980	-0.105758	
402363.461980	-0.107741	
402363.463981	-0.112177	
402363.465980	-0.116049	
402363.467981	-0.120062	
402363.471980	-0.123638	
402363.475978	-0.132500	
402363.477980	-0.139308	
402363.479981	-0.142117	
402363.481980	-0.146338	
402363.483980	-0.151712	
402363.485980	-0.156009	
402363.487981	-0.159754	
402363.489980	-0.164600	
402363.493981	-0.171537	
402363.495981	-0.180530	
402363.497981	-0.186540	
402363.499981	-0.191423	
402363.501981	-0.197065	
402363.503981	-0.202202	
402363.505981	-0.208637	
402363.507981	-0.215692	
402363.509981	-0.221896	
402363.511984	-0.229385	
402363.515980	-0.237570	
402363.517981	-0.255765	
402363.519981	-0.262473	
402363.521980	-0.269975	
402363.523981	-0.280253	
402363.525980	-0.290944	
402363.527980	-0.299622	
402363.529980	-0.310335	
402363.531984	-0.323954	
402363.535981	-0.337648	
402363.537980	-0.361067	
402363.539981	-0.373540	
402363.541981	-0.387270	
402363.543984	-0.399999	
402363.545985	-0.413118	
402363.547982	-0.425447	
402363.551980	-0.438811	
402363.555980	-0.471510	
402363.557983	-0.504099	
402363.559986	-0.518841	
402363.561983	-0.534834	
402363.563984	-0.551979	
402363.565982	-0.569144	
402363.567982	-0.587021	
402363.571981	-0.604265	
402363.575981	-0.638680	
402363.577983	-0.671641	
402363.579983	-0.686656	
402363.581984	-0.702782	
402363.583983	-0.719186	
402363.585983	-0.735272	
402363.587983	-0.748571	
402363.589982	-0.763057	
402363.593982	-0.779372	
402363.597982	-0.804124	
402363.599982	-0.828175	
402363.601983	-0.838870	
402363.603983	-0.849546	
402363.605983	-0.859181	
402363.607984	-0.868271	
402363.611980	-0.876622	
402363.615980	-0.893028	
402363.617983	-0.905599	
402363.619983	-0.910087	
402363.621984	-0.915338	
402363.623982	-0.919629	
402363.625982	-0.923212	
402363.627982	-0.926389	
402363.631981	-0.931352	
402363.635980	-0.937350	
402363.637983	-0.942281	
402363.639983	-0.941478	
402363.641985	-0.941179	
402363.643985	-0.941672	
402363.645987	-0.942867	
402363.647985	-0.942777	
402363.649984	-0.941511	
402363.655983	-0.941710	
402363.657985	-0.936482	
402363.659984	-0.931573	
402363.661984	-0.929235	
402363.663985	-0.927116	
402363.665986	-0.921664	
402363.667984	-0.917522	
402363.669984	-0.914581	
402363.673985	-0.903021	
402363.677985	-0.895314	
402363.679985	-0.880172	
402363.681985	-0.870389	
402363.683985	-0.860689	
402363.685985	-0.851517	
402363.687984	-0.840264	
402363.691983	-0.827112	
402363.693986	-0.799987	
402363.695984	-0.786386	
402363.697986	-0.771473	
402363.699990	-0.752338	
402363.702001	-0.733576	
402363.704000	-0.717016	
402363.706001	-0.698284	
402363.708002	-0.677543	
402363.710000	-0.656081	
402363.714001	-0.639127	
402363.716002	-0.595942	
402363.718001	-0.574477	
402363.720001	-0.554320	
402363.722002	-0.532610	
402363.724000	-0.507703	
402363.726001	-0.485328	
402363.728001	-0.464580	
402363.730000	-0.443835	
402363.731999	-0.424802	
402363.736001	-0.406499	
402363.738001	-0.366114	
402363.740000	-0.342435	
402363.742001	-0.319239	
402363.744003	-0.296273	
402363.746004	-0.277923	
402363.748007	-0.257248	
402363.750006	-0.233805	
402363.752008	-0.214415	
402363.754005	-0.196551	
402363.758007	-0.176494	
402363.760006	-0.133635	
402363.762008	-0.114540	
402363.764008	-0.097404	
402363.766007	-0.076711	
402363.768007	-0.058270	
402363.770006	-0.041839	
402363.774005	-0.025917	
402363.778005	0.012444	
402363.780007	0.041355	
402363.782007	0.059564	
402363.784007	0.078077	
402363.786006	0.092706	
402363.788006	0.107204	
402363.790007	0.125559	
402363.792006	0.143319	
402363.796016	0.158759	
402363.798017	0.190920	
402363.800017	0.211230	
402363.802021	0.229321	
402363.804019	0.246127	
402363.806020	0.265345	
402363.808022	0.285414	
402363.810020	0.306307	
402363.812018	0.324702	
402363.816020	0.341132	
402363.818020	0.383765	
402363.820020	0.399987	
402363.822021	0.415102	
402363.824022	0.437851	
402363.826021	0.460278	
402363.828022	0.478208	
402363.830020	0.496378	
402363.832021	0.518715	
402363.836021	0.538512	
402363.838021	0.573758	
402363.840024	0.594225	
402363.842026	0.615477	
402363.844029	0.634165	
402363.846029	0.650554	
402363.848030	0.667535	
402363.850030	0.687434	
402363.852030	0.703901	
402363.854031	0.717081	
402363.858031	0.731952	
402363.860031	0.763482	
402363.862032	0.776656	
402363.864031	0.788731	
402363.866032	0.802738	
402363.868031	0.813923	
402363.870031	0.822976	
402363.872032	0.832338	
402363.874032	0.840722	
402363.876031	0.848563	
402363.880032	0.853913	
402363.882030	0.864032	
402363.884032	0.870126	
402363.886031	0.872634	
402363.888032	0.874061	
402363.890031	0.876309	
402363.892032	0.878951	
402363.896030	0.877979	
402363.900030	0.874842	
402363.902032	0.872773	
402363.904032	0.871341	
402363.906032	0.869832	
402363.908030	0.867461	
402363.919976	0.862495	
402363.921980	0.835066	
402363.925990	0.852089	
402363.927990	0.834537	
402363.929990	0.825262	
402363.931990	0.830804	
402363.933990	0.821984	
402363.937988	0.806403	
402363.939990	0.797111	
402363.941990	0.786629	
402363.945989	0.774370	
402363.947990	0.764655	
402363.949991	0.752993	
402363.951991	0.740512	
402363.953989	0.733894	
402363.957988	0.726810	
402363.959990	0.699395	
402363.961990	0.691868	
402363.965990	0.682399	
402363.967991	0.655733	
402363.969990	0.646678	
402363.971989	0.636690	
402363.973989	0.621779	
402363.977988	0.608900	
402363.979990	0.584527	
402363.981989	0.569603	
402363.985990	0.557023	
402363.987990	0.534686	
402363.989990	0.519862	
402363.991991	0.507803	
402363.993990	0.496076	
402363.997988	0.482729	
402363.999989	0.455562	
402364.001990	0.443414	
402364.005990	0.429558	
402364.007992	0.409747	
402364.009990	0.401529	
402364.011991	0.391038	
402364.013990	0.379765	
402364.017988	0.370003	
402364.019990	0.345155	
402364.021990	0.335189	
402364.025991	0.325665	
402364.027990	0.306724	
402364.029990	0.298075	
402364.031992	0.288566	
402364.033990	0.279232	
402364.037988	0.271060	
402364.039990	0.254955	
402364.041990	0.245979	
402364.045989	0.239385	
402364.047989	0.227371	
402364.049990	0.220727	
402364.051990	0.213977	
402364.053990	0.209132	
402364.057990	0.203576	
402364.059990	0.190718	
402364.061990	0.186479	
402364.065989	0.181714	
402364.067990	0.172409	
402364.069990	0.168782	
402364.071990	0.164591	
402364.073990	0.159839	
402364.075990	0.156083	
402364.077990	0.152288	
402364.079990	0.147014	
402364.081993	0.142636	
402364.085994	0.139589	
402364.087996	0.132821	
402364.089995	0.130655	
402364.091995	0.126761	
402364.094001	0.123860	
402364.096006	0.120245	
402364.098006	0.117561	
402364.102004	0.113924	
402364.106005	0.106391	
402364.108007	0.100022	
402364.110006	0.098618	
402364.112006	0.096593	
402364.114006	0.093336	
402364.116006	0.090054	
402364.118006	0.086664	
402364.120007	0.083527	
402364.124009	0.079720	
402364.128009	0.074121	
402364.130011	0.070635	
402364.132012	0.068100	
402364.134010	0.064927	
402364.136010	0.062670	
402364.138010	0.060427	
402364.140010	0.058489	
402364.144019	0.053588	
402364.148019	0.049948	
402364.150020	0.047539	
402364.152019	0.044974	
402364.154019	0.043682	
402364.156020	0.042388	
402364.158020	0.040070	
402364.160020	0.038271	
402364.164020	0.036365	
402364.166021	0.033118	
402364.168018	0.030806	
402364.170019	0.030726	
402364.172020	0.031165	
402364.174019	0.029837	
402364.176020	0.028333	
402364.178020	0.027181	
402364.180019	0.027016	
402364.184019	0.024435	
402364.188019	0.022351	
402364.190020	0.023028	
402364.192018	0.021925	
402364.194019	0.021734	
402364.196019	0.021161	
402364.198019	0.020601	
402364.200019	0.019930	
402364.204023	0.018067	
402364.208023	0.018368	
402364.210024	0.018734	
402364.212023	0.019806	
402364.214023	0.018705	
402364.216023	0.017975	
402364.218023	0.017426	
402364.220024	0.016997	
402364.224031	0.016033	
402364.226031	0.014676	
402364.228031	0.014558	
402364.230033	0.015764	
402364.232033	0.014794	
402364.234032	0.014883	
402364.236032	0.014222	
402364.238030	0.014308	
402364.240032	0.013981	
402364.244034	0.010823	
402364.248034	0.010853	
402364.250035	0.010101	
402364.252034	0.010135	
402364.254034	0.009598	
402364.256035	0.009491	
402364.258034	0.007732	
402364.260036	0.006592	
402364.264037	0.006055	
402364.268039	0.003456	
402364.270040	0.003754	
402364.272040	0.003483	
402364.274040	0.001814	
402364.276039	0.000759	
402364.278040	0.000414	
402364.280040	-0.000081	
402364.282038	-0.003402	
402364.286040	-0.004570	
402364.288040	-0.004782	
402364.290039	-0.005290	
402364.292040	-0.005589	
402364.294040	-0.005247	
402364.296040	-0.006371	
402364.298040	-0.008186	
402364.300039	-0.007484	
402364.302040	-0.010449	
402364.304042	-0.010764	
402364.308040	-0.011503	
402364.310040	-0.012368	
402364.312040	-0.011212	
402364.314039	-0.011541	
402364.316039	-0.011922	
402364.318040	-0.013795	
402364.320039	-0.012691	
402364.324037	-0.013745	
402364.328038	-0.015705	
402364.330040	-0.015778	
402364.332039	-0.015160	
402364.334040	-0.016060	
402364.336038	-0.015578	
402364.338040	-0.016038	
402364.340040	-0.015498	
402364.342038	-0.017297	
402364.346039	-0.018106	
402364.350040	-0.020109	
402364.352039	-0.018379	
402364.354039	-0.018440	
402364.356040	-0.018321	
402364.358040	-0.019659	
402364.360038	-0.019805	
402364.362039	-0.020058	
402364.366039	-0.021605	
402364.370038	-0.024385	
402364.372040	-0.023148	
402364.374042	-0.024727	
402364.376039	-0.025392	
402364.378040	-0.026805	
402364.380040	-0.026659	
402364.382042	-0.028715	
402364.386039	-0.032008	
402364.390039	-0.033769	
402364.392040	-0.035529	
402364.394039	-0.037098	
402364.396040	-0.038080	
402364.398040	-0.040637	
402364.400039	-0.041524	
402364.402038	-0.045063	
402364.406039	-0.047043	
402364.410039	-0.051354	
402364.412040	-0.053742	
402364.414040	-0.055671	
402364.416040	-0.057410	
402364.418041	-0.060727	
402364.420040	-0.062466	
402364.422038	-0.065920	
402364.426041	-0.068153	
402364.430041	-0.073759	
