time (s)	det(V)
5998.905925	0.421397	
5998.909924	0.411793	
5998.911925	0.402812	
5998.913926	0.398493	
5998.915925	0.393357	
5998.917925	0.386781	
5998.919925	0.379293	
5998.923923	0.372548	
5998.927923	0.358848	
5998.929925	0.344698	
5998.931925	0.338747	
5998.933925	0.331208	
5998.935925	0.323742	
5998.937925	0.317197	
5998.939926	0.310142	
5998.941928	0.302224	
5998.943933	0.294593	
5998.947936	0.286935	
5998.949937	0.273498	
5998.951937	0.267236	
5998.953937	0.260957	
5998.955938	0.253868	
5998.957937	0.246849	
5998.959939	0.240562	
5998.963935	0.234021	
5998.965936	0.221090	
5998.967937	0.215145	
5998.971936	0.208489	
5998.973937	0.197509	
5998.975938	0.191863	
5998.977936	0.185401	
5998.979937	0.179949	
5998.983935	0.175180	
5998.985937	0.163603	
5998.987936	0.158750	
5998.991936	0.153523	
5998.993937	0.144657	
5998.995937	0.139808	
5998.997937	0.136033	
5998.999936	0.131961	
5999.003935	0.127326	
5999.005936	0.118727	
5999.007936	0.115112	
5999.011936	0.110811	
5999.013937	0.104394	
5999.015937	0.101674	
5999.017937	0.097541	
5999.031879	0.078914	
5999.033882	0.076421	
5999.037881	0.073889	
5999.039881	0.069398	
5999.041881	0.067534	
5999.043881	0.065325	
5999.045881	0.062604	
5999.049880	0.060869	
5999.051881	0.056237	
5999.053881	0.054283	
5999.057881	0.052377	
5999.059881	0.049545	
5999.061880	0.048462	
5999.063881	0.045529	
5999.065881	0.045189	
5999.069879	0.043406	
5999.071882	0.039603	
5999.073881	0.038775	
5999.077880	0.037059	
5999.079881	0.034773	
5999.081881	0.034258	
5999.083882	0.032738	
5999.085881	0.031474	
5999.089878	0.030826	
5999.091881	0.027868	
5999.093882	0.026811	
5999.097881	0.025350	
5999.099881	0.024871	
5999.101881	0.024137	
5999.103882	0.023117	
5999.105881	0.022782	
5999.109880	0.022191	
5999.111881	0.019742	
5999.113882	0.019356	
5999.117882	0.018809	
5999.119881	0.018005	
5999.121882	0.018003	
5999.123881	0.017436	
5999.125881	0.016299	
5999.129880	0.016234	
5999.131882	0.014809	
5999.133882	0.014282	
5999.137881	0.013701	
5999.139881	0.013166	
5999.141881	0.013217	
5999.143881	0.013034	
5999.145881	0.011836	
5999.149880	0.011766	
5999.151883	0.010640	
5999.153881	0.010047	
5999.157881	0.009745	
5999.159881	0.009647	
5999.161881	0.009460	
5999.163881	0.009221	
5999.165882	0.008744	
5999.169878	0.008743	
5999.171881	0.007569	
5999.173881	0.007338	
5999.177881	0.006728	
5999.179880	0.007041	
5999.181881	0.007127	
5999.183881	0.006721	
5999.185882	0.006194	
5999.189880	0.006477	
5999.191881	0.005113	
5999.193882	0.004474	
5999.197883	0.004114	
5999.199884	0.005058	
5999.201884	0.004532	
5999.203883	0.004272	
5999.205882	0.004057	
5999.209882	0.003971	
5999.211882	0.002681	
5999.213884	0.002089	
5999.217882	0.002525	
5999.219883	0.002591	
5999.221884	0.003147	
5999.223882	0.002779	
5999.225883	0.002440	
5999.229882	0.002398	
5999.231883	0.001474	
5999.233885	0.001397	
5999.237883	0.000979	
5999.239883	0.001561	
5999.241884	0.001759	
5999.243883	0.001345	
5999.245884	0.000807	
5999.249881	0.000848	
5999.251884	-0.000091	
5999.253884	-0.000191	
5999.257882	-0.000163	
5999.259884	0.000237	
5999.261883	0.000475	
5999.263883	-0.000007	
5999.265883	0.000571	
5999.269881	0.000053	
5999.271883	-0.001110	
5999.273881	-0.000841	
5999.277882	-0.000811	
5999.279882	-0.000912	
5999.281886	-0.000504	
5999.283889	-0.000112	
5999.285889	-0.001027	
5999.289886	-0.000907	
5999.291887	-0.002073	
5999.293887	-0.002168	
5999.297888	-0.002632	
5999.299888	-0.002019	
5999.301889	-0.002053	
5999.303888	-0.001963	
5999.305888	-0.002997	
5999.309886	-0.002576	
5999.311889	-0.004035	
5999.313888	-0.003847	
5999.317888	-0.004103	
5999.319889	-0.004068	
5999.321889	-0.004012	
5999.323888	-0.004336	
5999.325888	-0.005092	
5999.329886	-0.004614	
5999.331889	-0.006245	
5999.333889	-0.006046	
5999.337888	-0.007026	
5999.339888	-0.006767	
5999.341889	-0.006741	
5999.343888	-0.007902	
5999.345888	-0.008110	
5999.349886	-0.008337	
5999.351889	-0.010348	
5999.353889	-0.010269	
5999.357888	-0.010933	
5999.359890	-0.011198	
5999.361889	-0.011322	
5999.363889	-0.012407	
5999.365888	-0.012203	
5999.369887	-0.013050	
5999.371888	-0.014636	
5999.373888	-0.015572	
5999.377888	-0.016048	
5999.379888	-0.016740	
5999.381888	-0.016535	
5999.383889	-0.017843	
5999.385889	-0.018286	
5999.389888	-0.018045	
5999.391888	-0.020353	
5999.393887	-0.021017	
5999.397888	-0.022623	
5999.399889	-0.022544	
5999.401889	-0.023238	
5999.403888	-0.024844	
5999.405888	-0.025282	
5999.409886	-0.026322	
5999.411889	-0.029024	
5999.413889	-0.030068	
5999.417887	-0.030473	
5999.419890	-0.032825	
5999.421888	-0.033369	
5999.423888	-0.034602	
5999.425888	-0.035926	
5999.429886	-0.037119	
5999.431888	-0.040540	
5999.433888	-0.041610	
5999.437889	-0.043223	
5999.439888	-0.045801	
5999.441888	-0.047079	
5999.443889	-0.048788	
5999.445887	-0.051161	
5999.449887	-0.052438	
5999.451889	-0.057513	
5999.453889	-0.059419	
5999.457887	-0.061900	
5999.459888	-0.065747	
5999.461888	-0.068426	
5999.463889	-0.070869	
5999.465890	-0.072860	
5999.469887	-0.075465	
5999.471889	-0.082564	
5999.473887	-0.085321	
5999.477888	-0.088429	
5999.479890	-0.094782	
5999.481890	-0.097202	
5999.483888	-0.100907	
5999.485889	-0.105123	
5999.489886	-0.108660	
5999.491889	-0.116988	
5999.493886	-0.121056	
5999.497887	-0.126091	
5999.499889	-0.132914	
5999.501889	-0.137928	
5999.503889	-0.142870	
5999.505888	-0.147735	
5999.509888	-0.151960	
5999.511887	-0.163031	
5999.513889	-0.169099	
5999.517889	-0.173448	
5999.519889	-0.184913	
5999.521888	-0.190073	
5999.523888	-0.196330	
5999.525888	-0.202390	
5999.529888	-0.207991	
5999.531888	-0.221520	
5999.533888	-0.227461	
5999.537889	-0.234885	
5999.539888	-0.248109	
5999.541889	-0.254034	
5999.543889	-0.261666	
5999.545888	-0.269277	
5999.549886	-0.276311	
5999.551887	-0.291680	
5999.553888	-0.299564	
5999.557888	-0.307250	
5999.559889	-0.321581	
5999.561889	-0.330531	
5999.563888	-0.338359	
5999.565888	-0.345915	
5999.569886	-0.353966	
5999.571889	-0.371461	
5999.573888	-0.379279	
5999.577892	-0.387642	
5999.579889	-0.403676	
5999.581889	-0.410255	
5999.583888	-0.416301	
5999.585890	-0.422267	
5999.589887	-0.428639	
5999.591888	-0.443021	
5999.593889	-0.450279	
5999.597890	-0.458426	
5999.599890	-0.470793	
5999.601888	-0.477299	
5999.603889	-0.483387	
5999.605888	-0.489630	
5999.609888	-0.495321	
5999.611887	-0.505678	
5999.613887	-0.510632	
5999.617888	-0.514580	
5999.619889	-0.520289	
5999.621888	-0.523929	
5999.623889	-0.526443	
5999.625889	-0.528489	
5999.629886	-0.529235	
5999.631890	-0.531616	
5999.633888	-0.532237	
5999.637888	-0.531038	
5999.639889	-0.527414	
5999.641888	-0.526212	
5999.643888	-0.523057	
5999.645889	-0.519493	
5999.649887	-0.515554	
5999.651889	-0.508704	
5999.653889	-0.501780	
5999.657889	-0.497247	
5999.659888	-0.483907	
5999.661889	-0.475481	
5999.663888	-0.468681	
5999.665888	-0.461992	
5999.669887	-0.453277	
5999.671888	-0.434767	
5999.673889	-0.428227	
5999.677892	-0.420368	
5999.679888	-0.402860	
5999.681888	-0.393333	
5999.683888	-0.383588	
5999.685889	-0.372141	
5999.689887	-0.360334	
5999.691890	-0.342047	
5999.693888	-0.330004	
5999.697888	-0.317881	
5999.699888	-0.297621	
5999.701888	-0.285375	
5999.703888	-0.272282	
5999.705889	-0.261991	
5999.709887	-0.252381	
5999.711889	-0.227372	
5999.713888	-0.216010	
5999.717887	-0.206824	
5999.719889	-0.180573	
5999.721889	-0.168825	
5999.723888	-0.159831	
5999.725888	-0.148803	
5999.729886	-0.134803	
5999.731888	-0.114182	
5999.733890	-0.104091	
5999.737890	-0.091175	
5999.739888	-0.068683	
5999.741887	-0.059829	
5999.743889	-0.046952	
5999.745889	-0.034204	
5999.749887	-0.025014	
5999.751889	-0.004363	
5999.753889	0.009573	
5999.757888	0.019759	
5999.759890	0.039419	
5999.761889	0.053169	
5999.763888	0.064030	
5999.765888	0.071598	
5999.769886	0.083318	
5999.771890	0.108303	
5999.773889	0.116781	
5999.777892	0.127607	
5999.779891	0.154300	
5999.781891	0.163973	
5999.783891	0.174140	
5999.785891	0.187479	
5999.789889	0.200833	
5999.791891	0.219039	
5999.793891	0.232240	
5999.797890	0.245647	
5999.799891	0.265087	
5999.801898	0.278010	
5999.803900	0.292390	
5999.805897	0.302615	
5999.809895	0.311778	
5999.811898	0.337404	
5999.813898	0.348297	
5999.817897	0.357529	
5999.819897	0.382932	
5999.821897	0.394934	
5999.823897	0.401572	
5999.825898	0.408643	
5999.829897	0.420164	
5999.831897	0.439613	
5999.833898	0.448437	
5999.837897	0.460259	
5999.839897	0.479720	
5999.841898	0.487176	
5999.843897	0.496945	
5999.845899	0.506940	
5999.849895	0.514473	
5999.851897	0.526492	
5999.853898	0.535115	
5999.857897	0.540399	
5999.859896	0.549917	
5999.861897	0.556316	
5999.863897	0.560520	
5999.865901	0.561813	
5999.869903	0.564585	
5999.871905	0.569557	
5999.873904	0.568520	
5999.877906	0.568009	
5999.879905	0.570042	
5999.881905	0.567715	
5999.883906	0.564623	
5999.885906	0.562499	
5999.889903	0.560251	
5999.891906	0.549338	
5999.893906	0.545026	
5999.897905	0.539898	
5999.899906	0.527159	
5999.901905	0.520541	
5999.903905	0.513953	
5999.905906	0.505743	
5999.909904	0.496571	
5999.911905	0.479811	
5999.913906	0.471023	
5999.917905	0.461396	
5999.919906	0.443145	
5999.921905	0.433853	
5999.923906	0.424101	
5999.925906	0.414585	
5999.929904	0.406970	
5999.931905	0.390374	
5999.933906	0.380870	
5999.937904	0.370840	
5999.939906	0.352003	
5999.941904	0.341899	
5999.943905	0.332347	
5999.945905	0.322812	
5999.949903	0.313811	
5999.951906	0.294484	
5999.953910	0.285533	
5999.957909	0.276989	
5999.959909	0.260322	
5999.961910	0.252280	
5999.963910	0.244263	
5999.965909	0.236569	
5999.969906	0.229081	
5999.971909	0.213804	
5999.973910	0.206046	
5999.977909	0.199147	
5999.979909	0.186736	
5999.981910	0.180506	
5999.983909	0.174574	
5999.985910	0.168222	
5999.987909	0.162262	
5999.989909	0.155947	
5999.991910	0.150280	
5999.993914	0.145146	
5999.997917	0.139091	
5999.999919	0.129969	
6000.001918	0.125359	
6000.003917	0.120628	
6000.005919	0.115988	
6000.007917	0.111378	
6000.009918	0.107587	
6000.013915	0.103366	
6000.028353	0.077783	
6000.030353	0.073322	
6000.032354	0.070351	
6000.034354	0.066997	
6000.036353	0.064454	
6000.040352	0.062481	
6000.042353	0.056042	
6000.044354	0.053441	
6000.048353	0.051330	
6000.050353	0.048207	
6000.052353	0.045603	
6000.054355	0.043493	
6000.056354	0.041702	
6000.060352	0.040299	
6000.062354	0.035079	
6000.064354	0.034501	
6000.068353	0.033145	
6000.070353	0.030277	
6000.072354	0.029166	
6000.074353	0.027897	
6000.076354	0.026611	
6000.080353	0.025265	
6000.082356	0.022781	
6000.084360	0.022238	
6000.088362	0.020387	
6000.090362	0.019819	
6000.092362	0.018850	
6000.094360	0.017825	
6000.096363	0.017020	
6000.100360	0.016852	
6000.102362	0.014423	
6000.104360	0.013798	
6000.108363	0.013342	
6000.110362	0.012652	
6000.112363	0.012708	
6000.114362	0.011865	
6000.116362	0.011770	
6000.120359	0.011361	
6000.122362	0.009607	
6000.124361	0.009330	
6000.128362	0.008831	
6000.130362	0.008266	
6000.132363	0.009150	
6000.134362	0.008188	
6000.136362	0.007536	
6000.140360	0.008037	
6000.142360	0.005867	
6000.144362	0.005864	
6000.148361	0.005585	
6000.150362	0.006268	
6000.152363	0.005456	
6000.154361	0.005429	
6000.156362	0.004684	
6000.160361	0.005009	
6000.162362	0.003653	
6000.164361	0.003210	
6000.168361	0.003345	
6000.170363	0.003097	
6000.172366	0.003312	
6000.174371	0.002921	
6000.176371	0.003144	
6000.180370	0.002754	
6000.182372	0.001762	
6000.184372	0.001599	
6000.188371	0.001506	
6000.190371	0.001900	
6000.192372	0.001242	
6000.194372	0.001423	
6000.196372	0.001141	
6000.200370	0.001319	
6000.202372	0.000113	
6000.204371	0.000261	
6000.208371	0.000300	
6000.210371	0.000590	
6000.212373	0.000868	
6000.214372	0.000539	
6000.216373	0.000809	
6000.220370	0.001138	
6000.222372	-0.000522	
6000.224372	-0.000254	
6000.228370	-0.000260	
6000.230371	0.000420	
6000.232373	0.000670	
6000.234372	0.000798	
6000.236372	0.000585	
6000.240370	0.000896	
6000.242372	-0.000208	
6000.244372	-0.000157	
6000.248373	-0.000355	
6000.250370	0.001081	
6000.252371	0.001194	
6000.254371	0.000730	
6000.256372	0.000846	
6000.260372	0.001329	
6000.262373	0.000033	
6000.264374	0.000310	
6000.268373	0.000531	
6000.270373	0.001281	
6000.272373	0.001380	
6000.274373	0.001236	
6000.276373	0.001450	
6000.280370	0.001574	
6000.282373	0.000912	
6000.284373	0.001033	
6000.288372	0.000704	
6000.290374	0.001416	
6000.292373	0.001703	
6000.294373	0.001243	
6000.296373	0.001283	
6000.300371	0.001681	
6000.302372	0.001135	
6000.304373	0.000499	
6000.308373	0.000942	
6000.310373	0.001133	
6000.312373	0.001551	
6000.314373	0.001462	
6000.316372	0.001710	
6000.320371	0.001914	
6000.322374	0.000059	
6000.324373	0.000945	
6000.328372	0.000609	
6000.330374	0.001196	
6000.332373	0.001975	
6000.334373	0.001375	
6000.336373	0.001331	
6000.340370	0.001682	
6000.342372	0.000469	
6000.344373	0.000497	
6000.348373	0.000224	
6000.350372	0.001855	
6000.352375	0.001072	
6000.354374	0.001252	
6000.356373	0.001300	
6000.360373	0.001290	
6000.362375	0.000054	
6000.364375	0.000199	
6000.368374	0.000996	
6000.370375	0.001193	
6000.372375	0.001417	
6000.374375	0.000912	
6000.376375	0.001383	
6000.380374	0.000909	
6000.382374	0.000732	
6000.384374	0.000381	
6000.388374	0.000597	
6000.390375	0.000918	
6000.392375	0.001675	
6000.394374	0.000950	
6000.396375	0.001251	
6000.400373	0.001352	
6000.402374	0.000521	
6000.404375	0.000632	
6000.408375	0.000189	
6000.410374	0.000750	
6000.414372	0.000416	
6000.416375	0.001027	
6000.420374	0.001016	
6000.422375	-0.000680	
6000.424375	-0.000598	
6000.428375	-0.000381	
6000.430375	-0.000548	
6000.432375	0.000212	
6000.434374	-0.000831	
6000.436375	-0.000697	
6000.440373	-0.001272	
6000.442374	-0.002450	
6000.444375	-0.002575	
6000.448375	-0.003345	
6000.450375	-0.002970	
6000.452374	-0.003061	
6000.454375	-0.003655	
6000.456375	-0.004454	
6000.460374	-0.004231	
6000.462375	-0.006312	
6000.464376	-0.006794	
6000.468375	-0.006702	
6000.470376	-0.007089	
6000.472375	-0.007777	
6000.474374	-0.008394	
6000.476375	-0.008818	
6000.480373	-0.009522	
6000.482374	-0.011176	
6000.484375	-0.011384	
6000.488375	-0.012802	
6000.490375	-0.012823	
6000.492375	-0.013756	
6000.494374	-0.014533	
6000.496375	-0.015631	
6000.500372	-0.016166	
6000.502374	-0.018375	
6000.504374	-0.019571	
6000.508374	-0.020502	
6000.510375	-0.021329	
6000.512374	-0.022488	
6000.514375	-0.023253	
6000.516374	-0.024641	
6000.520374	-0.025157	
6000.522375	-0.028986	
6000.524375	-0.030332	
6000.528374	-0.030718	
6000.530374	-0.033303	
6000.532377	-0.034541	
6000.534375	-0.035686	
6000.536375	-0.037624	
6000.540372	-0.039435	
6000.542374	-0.043670	
6000.544375	-0.045002	
6000.548374	-0.048085	
6000.550376	-0.050312	
6000.552375	-0.053514	
6000.554376	-0.055466	
6000.556375	-0.058290	
6000.560373	-0.060568	
6000.562374	-0.067077	
6000.564375	-0.069214	
6000.568375	-0.072459	
6000.570375	-0.078540	
6000.572375	-0.081315	
6000.574375	-0.085725	
6000.576375	-0.089035	
6000.580373	-0.092940	
6000.582376	-0.101997	
6000.584374	-0.105687	
6000.588375	-0.110831	
6000.590375	-0.119693	
6000.592374	-0.124220	
6000.594375	-0.129081	
6000.596375	-0.135481	
6000.600373	-0.140464	
6000.602375	-0.152001	
6000.604374	-0.158476	
6000.608374	-0.164829	
6000.610375	-0.175996	
6000.612375	-0.183238	
6000.614374	-0.189489	
6000.616376	-0.196014	
6000.620375	-0.203306	
6000.622375	-0.218144	
6000.624375	-0.225809	
6000.628375	-0.232641	
6000.630375	-0.247000	
6000.632375	-0.254343	
6000.634375	-0.262286	
6000.636375	-0.270097	
6000.640373	-0.277635	
6000.642375	-0.294173	
6000.644375	-0.302140	
6000.648374	-0.309429	
6000.652373	-0.332054	
6000.654375	-0.339442	
6000.656375	-0.346572	
6000.660372	-0.355070	
6000.662375	-0.369502	
6000.664376	-0.376342	
6000.668381	-0.383322	
6000.670381	-0.395832	
6000.672381	-0.402154	
6000.674380	-0.408565	
6000.676382	-0.414026	
6000.680379	-0.418106	
6000.682382	-0.426358	
6000.684381	-0.431773	
6000.688380	-0.436659	
6000.690380	-0.444599	
6000.692381	-0.449748	
6000.694380	-0.453778	
6000.696381	-0.456594	
6000.700379	-0.459659	
6000.702381	-0.468076	
6000.704381	-0.468603	
6000.708381	-0.470465	
6000.710381	-0.475161	
6000.712382	-0.474177	
6000.714380	-0.474253	
6000.716381	-0.476419	
6000.720379	-0.476877	
6000.722380	-0.473143	
6000.724380	-0.474559	
6000.728381	-0.473219	
6000.730381	-0.464091	
6000.732380	-0.462503	
6000.734381	-0.460677	
6000.736381	-0.455317	
6000.738381	-0.448559	
6000.740380	-0.445478	
6000.742380	-0.443052	
6000.746387	-0.435923	
6000.748389	-0.423053	
6000.750388	-0.419311	
6000.752389	-0.413456	
6000.754388	-0.403740	
6000.756389	-0.396093	
6000.758389	-0.390402	
6000.762388	-0.381187	
6000.766388	-0.360346	
6000.768389	-0.344081	
6000.770388	-0.331117	
6000.772389	-0.320190	
6000.774389	-0.311986	
6000.776389	-0.302441	
6000.778390	-0.289747	
6000.780390	-0.276987	
6000.784389	-0.268520	
6000.788390	-0.246657	
6000.790391	-0.222914	
6000.792391	-0.213789	
6000.794391	-0.201444	
6000.796390	-0.187807	
6000.798391	-0.176403	
6000.800392	-0.167023	
6000.804391	-0.155621	
6000.808391	-0.129311	
6000.810391	-0.107487	
6000.812393	-0.092742	
6000.814391	-0.080218	
6000.816391	-0.070641	
6000.818391	-0.059540	
6000.820391	-0.045577	
6000.824392	-0.033759	
6000.828390	-0.013012	
6000.830391	0.016687	
6000.832391	0.025611	
6000.834391	0.035619	
6000.836391	0.048672	
6000.838389	0.062159	
6000.842389	0.071813	
6000.846389	0.093479	
6000.848391	0.118067	
6000.850391	0.127756	
6000.852390	0.139678	
6000.854391	0.153881	
6000.856391	0.164275	
6000.858391	0.173053	
6000.860391	0.184516	
6000.864390	0.197772	
6000.868391	0.217883	
6000.870391	0.242623	
6000.872390	0.253785	
6000.874403	0.261916	
6000.876398	0.271148	
6000.878397	0.283221	
6000.882396	0.294567	
6000.886395	0.309753	
6000.888398	0.331138	
6000.890398	0.338768	
6000.892398	0.345592	
6000.894397	0.355384	
6000.896398	0.364167	
6000.898397	0.371009	
6000.900398	0.376720	
6000.904403	0.383271	
6000.908404	0.396191	
6000.910404	0.405182	
6000.912404	0.410063	
6000.914403	0.413804	
6000.916404	0.416574	
6000.918403	0.420812	
6000.920404	0.425785	
6000.924413	0.428687	
6000.928415	0.433230	
6000.932414	0.441009	
6000.934416	0.441715	
6000.936415	0.443176	
6000.938415	0.444310	
6000.942414	0.444037	
6000.946414	0.443473	
6000.948417	0.442590	
6000.950415	0.441645	
6000.952416	0.440206	
6000.954424	0.439046	
6000.956426	0.436655	
6000.958425	0.434422	
6000.960426	0.432077	
6000.964426	0.429117	
6000.966425	0.422977	
6000.968424	0.419516	
6000.970425	0.416536	
6000.972426	0.413047	
6000.974425	0.409276	
6000.976426	0.406679	
6000.978426	0.402594	
6000.980426	0.399668	
6000.984435	0.394096	
6000.988438	0.383483	
6000.990438	0.371836	
6000.994437	0.359874	
6000.996438	0.352926	
6000.998438	0.346943	
6001.002436	0.340555	
6001.004438	0.325682	
6001.006437	0.318239	
6001.008438	0.311498	
6001.010440	0.304876	
6001.012439	0.297518	
6001.014437	0.290272	
6001.016437	0.283242	
6001.018437	0.276291	
6001.022436	0.268654	
6001.026436	0.253487	
6001.028438	0.238429	
6001.030437	0.231674	
6001.032437	0.225553	
6001.034437	0.218970	
6001.036439	0.211175	
6001.038442	0.204430	
6001.040442	0.197669	
6001.044440	0.191131	
6001.048440	0.177903	
6001.050441	0.167765	
6001.052442	0.161566	
6001.054442	0.155901	
6001.056442	0.150515	
6001.058443	0.145627	
6001.060442	0.140796	
6001.064442	0.134367	
6001.066441	0.125885	
6001.068442	0.121403	
6001.070442	0.117052	
6001.072442	0.112504	
6001.074441	0.109296	
6001.076442	0.105742	
6001.078442	0.101646	
6001.080441	0.098469	
6001.084443	0.094530	
6001.088443	0.087977	
6001.100350	0.071622	
6001.102355	0.070140	
6001.106360	0.067901	
6001.108361	0.063774	
6001.110362	0.061955	
6001.112360	0.060666	
6001.114362	0.058983	
6001.116361	0.057276	
6001.118365	0.054873	
6001.122365	0.054030	
6001.124367	0.049046	
6001.126366	0.048114	
6001.128367	0.045763	
6001.130367	0.045238	
6001.132367	0.044046	
6001.134366	0.042651	
6001.136367	0.041459	
6001.138367	0.039699	
6001.142366	0.038435	
6001.146364	0.035037	
6001.148367	0.033025	
6001.150367	0.032175	
6001.152367	0.031172	
6001.154367	0.030299	
