time (s)	det(V)
404682.791617	-0.029430	
404682.793617	-0.028476	
404682.795617	-0.028851	
404682.797618	-0.029005	
404682.799617	-0.029108	
404682.801617	-0.029807	
404682.803618	-0.032257	
404682.807619	-0.033403	
404682.811619	-0.035430	
404682.813619	-0.037627	
404682.815619	-0.039454	
404682.817619	-0.041279	
404682.819618	-0.044322	
404682.821619	-0.046674	
404682.823619	-0.047925	
404682.827629	-0.051543	
404682.831629	-0.057564	
404682.833629	-0.061781	
404682.835629	-0.065813	
404682.837629	-0.069770	
404682.839629	-0.072619	
404682.841630	-0.074648	
404682.843629	-0.079229	
404682.847640	-0.085190	
404682.851641	-0.091014	
404682.853642	-0.099229	
404682.855641	-0.102096	
404682.857642	-0.104626	
404682.859640	-0.109092	
404682.861643	-0.113115	
404682.863641	-0.117606	
404682.867641	-0.121589	
404682.869640	-0.130239	
404682.871641	-0.133512	
404682.873641	-0.134226	
404682.875641	-0.137455	
404682.877645	-0.140514	
404682.879642	-0.144168	
404682.881641	-0.146229	
404682.883642	-0.148938	
404682.885641	-0.153271	
404682.889642	-0.156842	
404682.891641	-0.159819	
404682.893641	-0.160721	
404682.895641	-0.162692	
404682.897641	-0.164486	
404682.899643	-0.165568	
404682.901643	-0.167556	
404682.903642	-0.169291	
404682.905643	-0.171926	
404682.907643	-0.172998	
404682.911645	-0.176304	
404682.913644	-0.176857	
404682.915643	-0.178026	
404682.917644	-0.178914	
404682.919643	-0.181945	
404682.921642	-0.184111	
404682.925641	-0.184869	
404682.929641	-0.190542	
404682.931644	-0.196447	
404682.933646	-0.197749	
404682.935645	-0.202019	
404682.937643	-0.205313	
404682.939643	-0.208437	
404682.941642	-0.212858	
404682.945641	-0.217487	
404682.947643	-0.228594	
404682.951643	-0.234165	
404682.953642	-0.244920	
404682.955643	-0.251144	
404682.957643	-0.257403	
404682.959643	-0.264929	
404682.961643	-0.271248	
404682.963648	-0.279317	
404682.967644	-0.289421	
404682.969645	-0.306041	
404682.971644	-0.314602	
404682.973645	-0.321887	
404682.975645	-0.331057	
404682.977645	-0.339452	
404682.979644	-0.348483	
404682.981645	-0.358706	
404682.983644	-0.367057	
404682.987644	-0.378217	
404682.991645	-0.396031	
404682.993645	-0.411460	
404682.995645	-0.418030	
404682.997644	-0.424709	
404682.999645	-0.431840	
404683.001645	-0.439082	
404683.003645	-0.446901	
404683.007648	-0.455725	
404683.011649	-0.469215	
404683.013649	-0.478901	
404683.015649	-0.484731	
404683.017649	-0.490469	
404683.019649	-0.494360	
404683.021649	-0.498109	
404683.023650	-0.502744	
404683.027648	-0.508034	
404683.031648	-0.511846	
404683.033649	-0.517436	
404683.035649	-0.518058	
404683.037649	-0.519418	
404683.039649	-0.521562	
404683.041649	-0.523486	
404683.043649	-0.524442	
404683.047649	-0.526410	
404683.049649	-0.530739	
404683.051648	-0.531896	
404683.053652	-0.531018	
404683.055653	-0.532183	
404683.057653	-0.534638	
404683.059653	-0.536183	
404683.061654	-0.537323	
404683.063658	-0.539078	
404683.067657	-0.545495	
404683.071659	-0.549827	
404683.073659	-0.555495	
404683.075660	-0.560121	
404683.077658	-0.562269	
404683.079659	-0.566326	
404683.081659	-0.571987	
404683.083659	-0.578298	
404683.087661	-0.584025	
404683.091660	-0.592724	
404683.093661	-0.603346	
404683.095662	-0.606320	
404683.097661	-0.612789	
404683.099661	-0.620402	
404683.101661	-0.625644	
404683.103661	-0.627958	
404683.107662	-0.634175	
404683.111661	-0.644768	
404683.113661	-0.646230	
404683.115661	-0.652380	
404683.117661	-0.654686	
404683.119661	-0.653561	
404683.121659	-0.652679	
404683.123661	-0.655489	
404683.127663	-0.657916	
404683.131661	-0.649258	
404683.133661	-0.647103	
404683.135660	-0.640318	
404683.137660	-0.632944	
404683.139660	-0.630554	
404683.141661	-0.627256	
404683.145659	-0.617770	
404683.149659	-0.604571	
404683.151661	-0.589373	
404683.153661	-0.575742	
404683.155663	-0.568609	
404683.157660	-0.562332	
404683.159662	-0.552367	
404683.161665	-0.538389	
404683.163663	-0.529140	
404683.165669	-0.525030	
404683.171663	-0.500584	
404683.173663	-0.481148	
404683.175663	-0.472690	
404683.177663	-0.457962	
404683.179663	-0.446807	
404683.181662	-0.441061	
404683.183663	-0.434443	
404683.187662	-0.425699	
404683.191663	-0.411898	
404683.193663	-0.395067	
404683.195663	-0.383998	
404683.197664	-0.378492	
404683.199663	-0.375879	
404683.201663	-0.367025	
404683.203663	-0.355826	
404683.207663	-0.351766	
404683.209662	-0.341938	
404683.211663	-0.330779	
404683.213664	-0.323379	
404683.215663	-0.321566	
404683.217663	-0.314714	
404683.219663	-0.304212	
404683.221663	-0.295324	
404683.223663	-0.292121	
404683.225671	-0.288481	
404683.229671	-0.276741	
404683.231673	-0.263655	
404683.233673	-0.256601	
404683.235673	-0.245547	
404683.237672	-0.232753	
404683.239673	-0.227109	
404683.241673	-0.222032	
404683.243674	-0.209442	
404683.245673	-0.197148	
404683.249677	-0.190309	
404683.251676	-0.173660	
404683.253677	-0.157093	
404683.255676	-0.146610	
404683.257676	-0.139722	
404683.259677	-0.129159	
404683.261680	-0.112097	
404683.265675	-0.100848	
404683.267677	-0.084470	
404683.269677	-0.068372	
404683.271677	-0.054596	
404683.273689	-0.045302	
404683.275685	-0.034811	
404683.277685	-0.017285	
404683.279685	-0.002595	
404683.281684	0.005468	
404683.283685	0.015806	
404683.287684	0.042458	
404683.291685	0.050582	
404683.293686	0.071764	
404683.295685	0.086756	
404683.297685	0.093958	
404683.299685	0.098467	
404683.301685	0.109363	
404683.303685	0.122525	
404683.307685	0.128320	
404683.311685	0.140484	
404683.313685	0.161369	
404683.315685	0.163703	
404683.317685	0.170608	
404683.319685	0.180862	
404683.321685	0.189546	
404683.325684	0.191898	
404683.329683	0.206089	
404683.331685	0.217518	
404683.333685	0.222982	
404683.335684	0.232864	
404683.337686	0.242977	
404683.339684	0.247285	
404683.341685	0.250878	
404683.343688	0.261030	
404683.347687	0.271056	
404683.351686	0.280166	
404683.353686	0.303541	
404683.355687	0.311343	
404683.357688	0.316082	
404683.359689	0.325114	
404683.361694	0.338984	
404683.363696	0.347523	
404683.367695	0.351410	
404683.371695	0.374514	
404683.373696	0.393269	
404683.375695	0.400008	
404683.377696	0.411323	
404683.379696	0.422140	
404683.381696	0.428727	
404683.385693	0.436294	
404683.387696	0.461947	
404683.391696	0.469352	
404683.393696	0.489477	
404683.395695	0.502859	
404683.397695	0.509185	
404683.399696	0.514109	
404683.401695	0.523538	
404683.405693	0.534694	
404683.407696	0.542876	
404683.411697	0.548752	
404683.413696	0.563227	
404683.415696	0.563367	
404683.417695	0.565833	
404683.419696	0.571156	
404683.421697	0.574614	
404683.425693	0.573142	
404683.429693	0.574594	
404683.431696	0.572217	
404683.433696	0.570538	
404683.435696	0.571759	
404683.437695	0.571378	
404683.439696	0.567585	
404683.441695	0.562340	
404683.443698	0.561924	
404683.447698	0.559256	
404683.451697	0.549476	
404683.453698	0.547045	
404683.455697	0.544271	
404683.457699	0.537699	
404683.459697	0.534694	
404683.461698	0.534923	
404683.463698	0.530799	
404683.467705	0.523689	
404683.469707	0.521126	
404683.471706	0.519677	
404683.473705	0.516366	
404683.475705	0.513723	
404683.477706	0.516208	
404683.479706	0.515126	
404683.481706	0.511918	
404683.483704	0.511235	
404683.485708	0.509972	
404683.489706	0.510973	
404683.491706	0.508010	
404683.493706	0.511412	
404683.495705	0.512807	
404683.497705	0.512737	
404683.499706	0.511168	
404683.501705	0.512153	
404683.503706	0.514521	
404683.505705	0.513425	
404683.509717	0.511581	
404683.511717	0.512725	
404683.513718	0.513532	
404683.515719	0.510795	
404683.517717	0.510287	
404683.519718	0.508809	
404683.521720	0.508206	
404683.535648	0.480852	
404683.537650	0.494178	
404683.541649	0.498139	
404683.543651	0.468451	
404683.545650	0.470407	
404683.547650	0.464896	
404683.549650	0.448264	
404683.553649	0.436571	
404683.555650	0.425972	
404683.557652	0.411348	
404683.561650	0.402120	
404683.563651	0.392631	
404683.565651	0.377964	
404683.567651	0.368518	
404683.569651	0.363527	
404683.573648	0.352694	
404683.575651	0.330664	
404683.577651	0.326502	
404683.581649	0.313789	
404683.583651	0.298976	
404683.585650	0.294406	
404683.587650	0.282829	
404683.589650	0.273708	
404683.593649	0.272492	
404683.595651	0.256227	
404683.597651	0.250336	
404683.601651	0.249904	
404683.603650	0.239466	
404683.605651	0.236824	
404683.607651	0.236705	
404683.609650	0.233214	
404683.613656	0.228339	
404683.615658	0.226541	
404683.617658	0.222759	
404683.621659	0.219230	
404683.623659	0.221978	
404683.625658	0.219733	
404683.627658	0.217696	
404683.629659	0.219379	
404683.633656	0.218663	
404683.635659	0.213814	
404683.637659	0.214451	
404683.641658	0.213426	
404683.643659	0.212324	
404683.645658	0.212527	
404683.647658	0.209846	
404683.649658	0.206863	
404683.651658	0.206365	
404683.653659	0.204480	
404683.655658	0.199197	
404683.657658	0.196198	
404683.661658	0.194930	
404683.663658	0.186923	
404683.665658	0.183515	
404683.667659	0.182205	
404683.669659	0.177304	
404683.671658	0.170997	
404683.673659	0.166856	
404683.677657	0.163712	
404683.681655	0.150581	
404683.683659	0.141887	
404683.685659	0.136507	
404683.689657	0.125586	
404683.691658	0.120614	
404683.693658	0.115065	
404683.697656	0.108156	
404683.701656	0.097540	
404683.703659	0.085481	
404683.705659	0.082463	
404683.707658	0.078588	
404683.709658	0.073046	
404683.711658	0.068241	
404683.713658	0.063961	
404683.715659	0.059136	
404683.719657	0.054542	
404683.723658	0.046946	
404683.725659	0.042462	
404683.727659	0.040812	
404683.729659	0.037855	
404683.731658	0.034501	
404683.733659	0.034573	
404683.735658	0.032009	
404683.739659	0.028468	
404683.743660	0.028000	
404683.745659	0.027794	
404683.747661	0.027615	
404683.749660	0.028593	
404683.751660	0.028141	
404683.753661	0.027924	
404683.755661	0.027473	
404683.759660	0.028042	
404683.761662	0.028734	
404683.763661	0.029381	
404683.765665	0.030844	
404683.767664	0.032403	
404683.769662	0.032318	
404683.771661	0.032341	
404683.773662	0.033790	
404683.775662	0.034519	
404683.779662	0.033701	
404683.783662	0.032389	
404683.785662	0.032945	
404683.787665	0.031701	
404683.789661	0.032211	
404683.791661	0.030231	
404683.793662	0.030085	
404683.795660	0.026943	
404683.799668	0.023270	
404683.803669	0.019944	
404683.805670	0.015360	
404683.807669	0.013461	
404683.809670	0.010609	
404683.811670	0.006571	
404683.813670	0.003143	
404683.815670	-0.001567	
404683.819677	-0.005760	
404683.823677	-0.015997	
404683.825678	-0.022318	
404683.827678	-0.026053	
404683.829678	-0.031552	
404683.831677	-0.036899	
404683.833678	-0.039623	
404683.835678	-0.044943	
404683.839685	-0.051912	
404683.843685	-0.058308	
404683.845685	-0.066752	
404683.847685	-0.070211	
404683.849686	-0.072546	
404683.851684	-0.077060	
404683.853686	-0.081434	
404683.857684	-0.085279	
404683.859686	-0.090776	
404683.863685	-0.096923	
404683.865686	-0.097613	
404683.867686	-0.098825	
404683.869685	-0.102171	
404683.871686	-0.104823	
404683.873684	-0.103896	
404683.875685	-0.105929	
404683.877684	-0.107934	
404683.881685	-0.109451	
404683.883687	-0.109576	
404683.885685	-0.109976	
404683.887687	-0.109532	
404683.889694	-0.108785	
404683.891694	-0.108722	
404683.893693	-0.108240	
404683.895693	-0.108445	
404683.897693	-0.110176	
404683.901692	-0.108671	
404683.903693	-0.109585	
404683.905694	-0.109335	
404683.907693	-0.108052	
404683.909693	-0.107235	
404683.911694	-0.108912	
404683.913693	-0.110530	
404683.917691	-0.110829	
404683.921691	-0.116059	
404683.923694	-0.119318	
404683.925693	-0.119289	
404683.929692	-0.126712	
404683.931694	-0.131064	
404683.933693	-0.132469	
404683.937692	-0.138606	
404683.941691	-0.149176	
404683.943693	-0.158781	
404683.945694	-0.164846	
404683.947695	-0.171046	
404683.949693	-0.176501	
404683.951694	-0.183172	
404683.953694	-0.191163	
404683.955694	-0.198588	
404683.959694	-0.206525	
404683.963692	-0.221108	
404683.965694	-0.235257	
404683.967693	-0.241471	
404683.969692	-0.250443	
404683.971694	-0.258047	
404683.973694	-0.264288	
404683.975692	-0.271009	
404683.979695	-0.279509	
404683.983695	-0.293744	
404683.985695	-0.304815	
404683.987696	-0.310992	
404683.989695	-0.315804	
404683.991695	-0.321383	
404683.993702	-0.325238	
404683.995701	-0.331495	
404683.999703	-0.336969	
404684.003702	-0.343838	
404684.005703	-0.349055	
404684.007704	-0.350106	
404684.009704	-0.352461	
404684.011704	-0.354698	
404684.013704	-0.356284	
404684.015703	-0.358343	
404684.019703	-0.360160	
404684.021703	-0.362463	
404684.023703	-0.362573	
404684.025706	-0.362216	
404684.027703	-0.361495	
404684.029703	-0.362298	
404684.031704	-0.364488	
404684.033704	-0.363863	
404684.035703	-0.364294	
404684.039703	-0.367634	
404684.043702	-0.369945	
404684.045704	-0.371342	
404684.047703	-0.373530	
404684.049703	-0.375132	
404684.051703	-0.377951	
404684.053703	-0.380677	
404684.055704	-0.385334	
404684.059703	-0.389362	
404684.061705	-0.397481	
404684.063703	-0.402202	
404684.065703	-0.407065	
404684.067704	-0.411644	
404684.069704	-0.416431	
404684.071704	-0.421094	
404684.073703	-0.425496	
404684.075704	-0.430347	
404684.079710	-0.437869	
404684.083710	-0.452430	
404684.085711	-0.466306	
404684.087712	-0.472858	
404684.089713	-0.479854	
404684.091716	-0.487450	
404684.093711	-0.493591	
404684.095714	-0.500628	
404684.099716	-0.508623	
404684.103718	-0.521049	
404684.105718	-0.528383	
404684.107717	-0.533409	
404684.109718	-0.537232	
404684.111716	-0.539609	
404684.113716	-0.541621	
404684.115717	-0.545995	
404684.119717	-0.548573	
404684.123717	-0.548834	
404684.125717	-0.546966	
404684.127719	-0.543791	
404684.129718	-0.540546	
404684.131718	-0.539475	
404684.133717	-0.535994	
404684.135717	-0.532241	
404684.139718	-0.528224	
404684.143716	-0.519839	
404684.145717	-0.503681	
404684.147718	-0.498325	
404684.149717	-0.492234	
404684.151718	-0.485502	
404684.153718	-0.476830	
404684.155718	-0.469857	
404684.159718	-0.464317	
404684.161717	-0.448443	
404684.163717	-0.440686	
404684.165720	-0.434136	
404684.167720	-0.427673	
404684.169719	-0.421499	
404684.171719	-0.416197	
404684.173720	-0.410599	
404684.175721	-0.405371	
404684.179719	-0.399661	
404684.183718	-0.388464	
404684.185720	-0.376672	
404684.187722	-0.370431	
404684.189720	-0.366566	
404684.191726	-0.363708	
404684.193727	-0.357602	
404684.195727	-0.352057	
404684.199727	-0.350405	
404684.203727	-0.343126	
404684.205729	-0.332247	
404684.207727	-0.328698	
404684.209727	-0.323819	
404684.211728	-0.317689	
404684.213728	-0.313227	
404684.215727	-0.311143	
404684.219726	-0.307421	
404684.223727	-0.294127	
404684.225728	-0.283607	
404684.227726	-0.274451	
404684.229728	-0.267258	
404684.231728	-0.263088	
404684.233728	-0.256017	
404684.235726	-0.247761	
404684.239727	-0.239731	
404684.243727	-0.225399	
404684.245728	-0.202219	
404684.247729	-0.192860	
404684.249727	-0.184752	
404684.251728	-0.174327	
404684.253728	-0.160829	
404684.255728	-0.150203	
404684.259727	-0.142426	
404684.263727	-0.115648	
404684.265727	-0.092457	
404684.267728	-0.080779	
404684.269726	-0.067725	
404684.271728	-0.054321	
404684.273727	-0.044119	
404684.275726	-0.034635	
404684.279726	-0.021302	
404684.283727	0.000489	
404684.285727	0.022259	
404684.287728	0.034814	
404684.289727	0.043307	
404684.291729	0.049574	
404684.293730	0.060645	
404684.295730	0.070798	
404684.299731	0.076880	
404684.303733	0.091332	
404684.305733	0.112395	
404684.307732	0.117496	
404684.309734	0.125645	
404684.311734	0.135823	
404684.313732	0.144477	
404684.315733	0.148411	
404684.319732	0.153948	
404684.323732	0.172166	
404684.325733	0.185058	
404684.327734	0.195832	
404684.329733	0.204917	
404684.331735	0.209758	
404684.333732	0.216268	
404684.335733	0.225300	
404684.339732	0.233965	
404684.341734	0.247989	
404684.343734	0.258236	
404684.345733	0.270405	
404684.347737	0.277988	
404684.349735	0.285783	
404684.351734	0.294708	
404684.353734	0.307932	
404684.355735	0.318282	
404684.359734	0.324890	
404684.363734	0.348568	
404684.365735	0.369551	
404684.367735	0.380995	
404684.369734	0.392733	
404684.371734	0.403168	
404684.373734	0.410050	
404684.377733	0.418690	
404684.381732	0.442285	
404684.383734	0.458890	
404684.385735	0.470564	
404684.387737	0.481688	
404684.391744	0.495521	
404684.393745	0.505001	
404684.395747	0.513681	
404684.399746	0.517905	
404684.401748	0.527531	
404684.403746	0.533970	
404684.405746	0.539371	
404684.407746	0.542593	
404684.409747	0.545590	
404684.411747	0.550060	
404684.413746	0.553181	
404684.415746	0.553500	
404684.417751	0.552307	
404684.423749	0.555127	
404684.425748	0.554569	
404684.427748	0.555515	
404684.429748	0.555556	
404684.431748	0.552157	
404684.433749	0.550686	
404684.435749	0.548745	
404684.439753	0.546368	
404684.443753	0.541967	
404684.445752	0.540906	
404684.447752	0.538203	
404684.449753	0.535762	
404684.451753	0.532439	
404684.453752	0.532204	
404684.455752	0.530776	
404684.459759	0.527299	
404684.463761	0.525995	
404684.465760	0.524651	
404684.467761	0.524684	
404684.469760	0.524074	
404684.471761	0.524380	
404684.473764	0.525140	
404684.475766	0.524095	
404684.479765	0.523696	
404684.483765	0.524129	
404684.485767	0.525833	
404684.487766	0.526990	
404684.489765	0.527467	
404684.491766	0.526614	
404684.493766	0.527386	
404684.497764	0.526813	
404684.501764	0.523729	
404684.503766	0.521724	
404684.518136	0.517424	
404684.520136	0.497598	
404684.524136	0.510538	
404684.526137	0.488004	
404684.528138	0.482850	
404684.530137	0.486900	
404684.532137	0.473567	
404684.536136	0.457046	
404684.538137	0.445827	
404684.540136	0.432325	
404684.544138	0.419714	
404684.546137	0.409345	
404684.548136	0.397281	
404684.550138	0.389803	
404684.552138	0.383705	
404684.556136	0.374005	
404684.558136	0.349403	
404684.560136	0.344664	
404684.564137	0.333641	
404684.566136	0.315343	
404684.568137	0.310317	
404684.570136	0.300180	
404684.572137	0.289806	
404684.576136	0.285493	
404684.578136	0.270935	
404684.580138	0.262615	
404684.584136	0.258701	
404684.586138	0.247952	
404684.588138	0.242938	
404684.590139	0.241999	
404684.592144	0.237571	
404684.596141	0.232662	
404684.598143	0.226556	
404684.600143	0.223521	
404684.604143	0.219366	
404684.606143	0.218716	
404684.608144	0.216631	
404684.610143	0.214372	
404684.612144	0.213286	
404684.616141	0.213253	
404684.618143	0.207145	
404684.620142	0.206321	
404684.624142	0.205587	
404684.626144	0.204747	
404684.628143	0.204392	
404684.630143	0.202326	
404684.632143	0.199067	
404684.636142	0.198829	
404684.638143	0.191331	
404684.640144	0.189021	
404684.644143	0.188249	
404684.646144	0.182832	
404684.648144	0.178423	
404684.650144	0.176197	
404684.652144	0.173156	
404684.656141	0.167478	
404684.658143	0.159111	
404684.660143	0.155916	
404684.664143	0.149703	
404684.666142	0.142846	
404684.668144	0.138936	
404684.670144	0.131727	
404684.672144	0.127749	
404684.676142	0.124562	
404684.678145	0.112736	
404684.680143	0.107910	
404684.684144	0.104183	
404684.686145	0.094705	
404684.688145	0.090135	
404684.690145	0.086866	
404684.692145	0.082678	
404684.696144	0.078568	
404684.698145	0.068180	
404684.700146	0.065048	
404684.704145	0.061105	
404684.706146	0.055305	
404684.708146	0.053874	
404684.710146	0.051703	
404684.712145	0.048622	
404684.716143	0.046009	
404684.718144	0.041601	
404684.720145	0.038933	
404684.724144	0.037448	
404684.726146	0.038912	
404684.728146	0.038034	
404684.730146	0.036859	
404684.732145	0.035902	
404684.734145	0.036865	
404684.736145	0.035662	
404684.738145	0.033975	
404684.742151	0.034696	
404684.744152	0.036507	
404684.746152	0.037456	
404684.748152	0.037526	
404684.750152	0.039572	
404684.752151	0.039205	
404684.754151	0.039496	
404684.758149	0.040239	
404684.762148	0.040767	
404684.764152	0.040312	
404684.766152	0.042501	
404684.768152	0.042255	
404684.770153	0.040998	
404684.772153	0.040688	
404684.774152	0.041763	
404684.778151	0.041112	
404684.780153	0.037507	
404684.784152	0.036670	
404684.786152	0.035622	
404684.788153	0.033821	
404684.790151	0.033080	
404684.792154	0.031306	
404684.794152	0.030185	
404684.796153	0.027040	
404684.800152	0.023284	
404684.802152	0.019197	
