num crossings	time (s)	maj axis (mm)	min axis (mm)	theta (rad )	slope (V/s)
2825	3346.264593	46.764364	21.692475	1.285845	3.439159
2827	3350.408817	46.681836	21.568554	4.412369	3.577838
2829	3353.575394	44.515327	21.067820	1.262097	3.163800
2831	3357.693618	43.789185	21.768357	1.270184	3.666410
2833	3360.780896	44.051918	21.016728	4.417638	3.669680
2835	3363.926326	43.788909	21.587715	1.275991	3.643589
2837	3367.010063	44.247623	20.918722	4.413408	3.690543
2839	3370.155728	26.305629	-44.378701	0.300715	4.055135
2841	3374.330756	24.717720	-35.042103	0.039267	3.806015
2843	3377.424490	44.076942	21.343777	4.393720	3.410570
2845	3380.575455	59.770231	-20.919422	1.305414	3.404548
2847	3384.694534	45.835549	21.125820	1.238763	3.860646
2849	3387.816954	43.449551	21.319067	4.388231	3.321209
2851	3391.960899	0.000000	65.824410	2.740174	3.605941
2853	3395.082476	45.619569	20.982499	1.239286	3.406113
2855	3397.154230	43.788973	20.447382	1.240580	3.325692
2857	3401.326151	25.750642	-38.507741	2.473951	3.513602
2859	3404.399914	43.677725	20.677732	4.374777	3.507912
2861	3407.540565	43.597951	20.360143	1.229065	3.459182
2863	3411.723495	43.799561	20.541409	1.231284	3.487369
2865	3414.807382	35.121459	-49.561254	3.434423	3.411403
2867	3417.935733	84.987517	-25.983764	4.199788	3.488240
2869	3421.012833	44.700967	-19.395727	4.373604	3.603712
2871	3423.105053	41.821242	-16.240967	4.275583	3.141957
2873	3425.196863	45.353432	20.228025	4.366128	3.027176
2875	3427.274237	45.115934	20.649198	4.368286	3.693528
2877	3430.395201	45.690488	20.021455	4.355131	3.456995
2879	3434.556368	0.000000	40.300959	5.571883	3.736142
2881	3438.702115	45.090142	19.925899	1.207640	3.739387
2883	3442.839813	41.950480	-22.525912	1.545642	3.760081
2885	3444.923060	44.177265	-19.015337	1.173089	3.326475
2887	3448.011634	0.000000	38.138903	3.393259	3.665375
2889	3451.175925	44.843933	19.615986	1.204478	3.555457
2891	3454.276992	44.441556	20.045742	4.320862	3.654848
2893	3456.341171	42.922781	19.968967	4.340048	3.113107
2895	3459.492111	42.604804	19.516882	1.199799	3.396564
2897	3463.618717	44.622234	19.454463	1.189205	3.477979
2899	3466.734754	44.719123	19.646332	4.320038	3.708014
2901	3468.804594	44.765987	19.579893	4.326972	3.181984
2903	3470.872217	44.877741	19.666068	4.335542	3.094350
2905	3472.943612	45.106031	19.365450	4.336195	2.872639
2907	3475.015152	45.031188	19.256895	4.335679	3.148447
2909	3477.095394	44.942956	19.239200	4.330527	3.215610
2911	3479.175576	45.303788	19.171049	4.338174	3.196841
2913	3481.259074	45.034836	19.475021	4.341973	3.236278
2915	3483.340864	44.906024	19.456846	4.338644	3.488766
2917	3485.424276	44.899577	19.152242	4.329753	3.482112
2919	3487.498939	44.581209	-17.632528	4.320152	3.645495
2921	3489.564367	43.821596	-10.858325	4.223805	3.800398
2923	3492.717683	25.835361	-43.851803	0.072551	3.574343
2925	3494.792972	44.812836	-18.965830	1.151376	3.326437
2927	3496.855088	45.441923	19.008347	1.183634	3.783465
2929	3498.914710	45.086342	19.095465	1.170657	3.823263
2931	3500.994553	43.858644	-17.203018	1.167799	3.192942
2933	3503.081565	45.022215	18.149619	1.170500	3.409609
2935	3505.170441	45.248689	18.445230	1.179398	2.978712
2937	3507.256124	45.555696	18.609484	1.183096	3.413202
2939	3509.332824	45.269874	-18.100562	1.137374	3.286052
2941	3511.406114	45.381030	18.364269	1.178854	3.634503
2943	3513.477995	45.467852	18.316815	1.180248	3.764979
2945	3515.550755	45.533754	18.219626	1.178568	3.803933
2947	3517.625749	45.405547	18.368940	1.177630	3.769936
2949	3519.703533	45.496179	18.251805	1.178028	3.788499
2951	3521.784346	45.499210	18.101166	1.177006	3.885210
2953	3523.866552	45.475206	18.315613	1.178382	3.833429
2955	3525.946461	45.516396	17.821839	1.159651	3.652031
2957	3528.025145	45.750461	17.710056	1.158334	3.607332
2959	3530.095503	45.519039	17.630233	1.150563	3.493833
2961	3532.163012	45.782283	17.832779	1.165566	3.378651
2963	3534.226827	45.748019	17.606458	1.165521	3.485556
2965	3536.296455	45.413971	17.717610	1.170880	3.312665
2967	3538.375533	45.269668	17.783471	1.173666	3.821993
2969	3540.465913	45.493781	17.784911	1.175290	3.793301
2971	3542.557588	45.569951	17.949004	1.173010	4.098448
2973	3544.639944	45.758733	17.427705	1.153684	3.891900
2975	3546.713084	45.913521	17.304955	1.152473	3.625875
2977	3548.782776	45.416192	-16.335389	1.154784	3.437043
2979	3550.850581	46.384790	17.310191	1.161071	3.403974
2981	3552.920266	45.146592	-16.433937	1.154958	3.549874
2983	3554.993918	45.791397	17.378490	1.161870	3.373639
2985	3557.069330	46.125236	17.137667	1.157473	3.639878
2987	3559.144433	45.803757	17.261672	1.156328	3.897453
2989	3561.221509	46.076279	17.163924	1.155594	3.808847
2991	3563.300461	45.902756	16.980273	1.149908	3.664809
2993	3565.381191	46.050251	17.366962	1.161763	3.635994
2995	3567.463965	46.329364	16.720766	1.153765	3.822719
2997	3569.545672	46.370394	16.614028	1.156954	3.757646
2999	3571.630133	46.170346	16.594420	1.153321	3.614139
3001	3573.712689	46.495789	16.844260	1.160811	3.715052
3003	3575.789131	46.766966	17.828800	1.180155	3.768654
3005	3577.860306	46.544624	16.746194	1.158826	3.934583
3007	3579.925187	46.647471	17.304735	1.164309	4.327107
3009	3581.990283	46.187027	16.955417	1.147417	4.093946
3011	3584.064573	46.345455	16.670237	1.139672	3.887806
3013	3586.144105	46.258355	17.170116	1.154598	4.117295
3015	3588.226879	46.143457	16.357170	1.144892	4.043867
3017	3590.311647	45.096093	-15.723127	1.112933	3.641354
3019	3592.395094	44.915209	-15.333631	1.133047	3.977020
3021	3594.475494	45.919663	-15.172936	1.141300	3.867172
3023	3596.554326	46.984004	15.953211	1.139577	3.704168
3025	3598.633054	47.038844	16.159380	1.139936	3.834355
3027	3600.710255	46.569321	16.086557	1.136262	3.942859
3029	3602.786179	45.090879	-16.282208	1.072566	3.805834
3031	3604.861144	44.897417	-18.019661	1.138566	3.862152
3033	3606.934141	46.826224	15.850349	1.136423	3.857051
3035	3609.006247	46.847377	15.818223	1.135031	3.876546
3037	3611.076683	47.227294	16.166392	1.147964	4.007861
3039	3613.146479	46.774845	15.926946	1.141085	4.049566
3041	3615.217237	46.786804	15.909842	1.142764	4.182787
3043	3617.293698	46.722092	15.870014	1.142911	4.004104
3045	3619.374206	46.672238	16.000757	1.149179	4.201892
3047	3621.461513	46.884239	15.899922	1.145654	4.331052
3049	3623.549978	46.985417	15.694744	1.140422	4.335316
3051	3625.632367	46.722375	15.833895	1.136216	4.275953
3053	3627.710408	47.357643	15.456782	1.128724	4.045640
3055	3629.787216	47.378899	15.281282	1.124701	3.931475
3057	3631.860443	47.202960	15.234700	1.124785	3.986159
3059	3633.934370	47.250108	15.263075	1.127248	3.972854
3061	3636.008814	47.332838	15.113686	1.125712	3.900935
3063	3638.084962	47.349369	15.152794	1.126659	4.242909
3065	3640.161611	47.386803	15.293960	1.132400	4.142627
3067	3642.240588	47.352625	15.045557	1.126462	4.048350
3069	3644.319867	47.235806	15.074517	1.126908	4.108968
3071	3646.400597	47.719312	15.299202	1.131818	4.083872
3073	3648.478843	47.722922	15.039500	1.127674	4.110222
