time (s)	det(V)
3789.430044	-0.339647	
3789.432044	-0.332979	
3789.436042	-0.322861	
3789.440041	-0.304946	
3789.442048	-0.287777	
3789.444048	-0.275871	
3789.446048	-0.267383	
3789.448048	-0.259585	
3789.450047	-0.249875	
3789.452047	-0.239072	
3789.454048	-0.230976	
3789.458051	-0.223264	
3789.462052	-0.203426	
3789.464054	-0.186156	
3789.466055	-0.177117	
3789.468053	-0.167033	
3789.470053	-0.157801	
3789.472054	-0.148964	
3789.474053	-0.142152	
3789.478059	-0.132593	
3789.482059	-0.113663	
3789.484060	-0.096412	
3789.486060	-0.085026	
3789.488060	-0.076366	
3789.490059	-0.068981	
3789.492059	-0.060120	
3789.494060	-0.049234	
3789.498059	-0.040372	
3789.502059	-0.023599	
3789.504060	-0.000503	
3789.506060	0.008129	
3789.508060	0.017512	
3789.510060	0.028134	
3789.512059	0.038840	
3789.514060	0.046942	
3789.518068	0.055752	
3789.522068	0.078175	
3789.524067	0.097739	
3789.526068	0.109637	
3789.528068	0.121974	
3789.530068	0.132222	
3789.532068	0.141763	
3789.534066	0.152975	
3789.538067	0.164479	
3789.542068	0.186184	
3789.544069	0.210367	
3789.546073	0.221968	
3789.548070	0.231747	
3789.550071	0.242216	
3789.552069	0.254030	
3789.554074	0.265217	
3789.558086	0.274534	
3789.560083	0.295381	
3789.562083	0.306062	
3789.564083	0.315526	
3789.566085	0.324540	
3789.568083	0.334779	
3789.570083	0.343736	
3789.572085	0.351601	
3789.574083	0.359129	
3789.578082	0.366490	
3789.582083	0.380810	
3789.584084	0.393317	
3789.586085	0.398890	
3789.588084	0.403098	
3789.590083	0.405977	
3789.592086	0.408893	
3789.594084	0.412799	
3789.598091	0.415398	
3789.602092	0.420588	
3789.604092	0.426171	
3789.606093	0.427545	
3789.608091	0.429068	
3789.610091	0.430622	
3789.612093	0.431980	
3789.614092	0.431650	
3789.618093	0.431198	
3789.620094	0.431626	
3789.622095	0.430794	
3789.624094	0.430414	
3789.626097	0.430255	
3789.628095	0.430268	
3789.630095	0.428365	
3789.632100	0.425982	
3789.634096	0.424718	
3789.638104	0.422197	
3789.642106	0.417834	
3789.644106	0.414265	
3789.646107	0.411809	
3789.648107	0.409010	
3789.650105	0.406375	
3789.652105	0.404443	
3789.654106	0.401854	
3789.658122	0.398102	
3789.662121	0.390855	
3789.664122	0.382307	
3789.666123	0.377829	
3789.668123	0.372789	
3789.670122	0.367759	
3789.672122	0.362770	
3789.674123	0.356629	
3789.678130	0.350459	
3789.692038	0.301680	
3789.694040	0.294332	
3789.696041	0.289792	
3789.698040	0.281919	
3789.700041	0.273474	
3789.702041	0.265534	
3789.704040	0.260005	
3789.708050	0.251507	
3789.710051	0.237563	
3789.712052	0.231262	
3789.714057	0.223713	
3789.716053	0.216475	
3789.718055	0.209999	
3789.720056	0.202638	
3789.724055	0.196117	
3789.728054	0.182322	
3789.730056	0.170377	
3789.732056	0.164533	
3789.734058	0.159114	
3789.736056	0.153541	
3789.738056	0.147627	
3789.740056	0.142751	
3789.742055	0.137999	
3789.746056	0.131704	
3789.748056	0.122581	
3789.750058	0.118791	
3789.752058	0.114371	
3789.754056	0.110317	
3789.756055	0.107108	
3789.758056	0.102648	
3789.760055	0.099666	
3789.762056	0.095983	
3789.766058	0.091853	
3789.770060	0.086128	
3789.772060	0.080246	
3789.774060	0.078439	
3789.776061	0.075877	
3789.778060	0.072779	
3789.780061	0.070746	
3789.782061	0.068881	
3789.786059	0.065689	
3789.790059	0.061643	
3789.792060	0.058989	
3789.794060	0.056705	
3789.796061	0.055202	
3789.798060	0.053278	
3789.800065	0.052376	
3789.804066	0.049994	
3789.806067	0.046683	
3789.810068	0.045390	
3789.812068	0.042602	
3789.814069	0.041970	
3789.816067	0.040476	
3789.818068	0.038751	
3789.820067	0.037557	
3789.824066	0.035998	
3789.828067	0.032847	
3789.830069	0.030750	
3789.832068	0.030065	
3789.834067	0.029402	
3789.836069	0.027933	
3789.838069	0.026395	
3789.840069	0.025911	
3789.842067	0.024536	
3789.846071	0.022612	
3789.848072	0.020878	
3789.850072	0.020382	
3789.852072	0.019168	
3789.854076	0.018219	
3789.856074	0.017934	
3789.858073	0.016769	
3789.860076	0.016103	
3789.862074	0.015482	
3789.866075	0.013952	
3789.870076	0.011949	
3789.872075	0.011702	
3789.874075	0.010889	
3789.876076	0.010516	
3789.878076	0.009925	
3789.880078	0.009196	
3789.882076	0.008542	
3789.886083	0.007799	
3789.890081	0.006253	
3789.892082	0.006798	
3789.894082	0.006259	
3789.896082	0.005983	
3789.898082	0.005926	
3789.900083	0.005989	
3789.902083	0.004515	
3789.906085	0.004193	
3789.910084	0.003889	
3789.912085	0.004017	
3789.914084	0.004087	
3789.916084	0.005195	
3789.918084	0.003566	
3789.920084	0.003812	
3789.922083	0.003455	
3789.926086	0.003439	
3789.930085	0.002631	
3789.932087	0.003429	
3789.934087	0.003941	
3789.936086	0.003542	
3789.938087	0.002962	
3789.940085	0.003952	
3789.944084	0.002977	
3789.948084	0.002635	
3789.950086	0.002616	
3789.952085	0.002927	
3789.954085	0.003218	
3789.956085	0.003226	
3789.958085	0.002633	
3789.960085	0.003610	
3789.962085	0.002501	
3789.966085	0.001968	
3789.970085	0.001886	
3789.972085	0.002050	
3789.974087	0.002332	
3789.976086	0.002350	
3789.978087	0.001696	
3789.980091	0.001992	
3789.982086	0.001596	
3789.984089	0.000850	
3789.988093	0.000908	
3789.990094	0.000425	
3789.992094	0.000375	
3789.994094	0.001397	
3789.996093	0.000485	
3789.998093	0.000775	
3790.000093	0.000901	
3790.002092	-0.000022	
3790.004094	-0.000554	
3790.006095	-0.000398	
3790.010093	-0.000739	
3790.012094	-0.000972	
3790.014094	-0.000460	
3790.016093	0.000000	
3790.018094	-0.000265	
3790.020094	-0.000978	
3790.022094	-0.000505	
3790.026091	-0.000830	
3790.028094	-0.001464	
3790.030094	-0.001578	
3790.032093	-0.001427	
3790.034105	-0.001545	
3790.036101	-0.001028	
3790.038102	-0.000971	
3790.040102	-0.000939	
3790.042102	-0.000584	
3790.046100	-0.000634	
3790.050099	-0.001189	
3790.052102	-0.001692	
3790.054102	-0.001391	
3790.056101	-0.000348	
3790.058102	-0.000635	
3790.060101	-0.000835	
3790.062101	-0.000087	
3790.064102	-0.001026	
3790.068101	-0.000841	
3790.072101	-0.001384	
3790.074101	-0.000493	
3790.076101	-0.000524	
3790.078101	-0.000344	
3790.080103	-0.000340	
3790.082108	-0.000102	
3790.084107	-0.000804	
3790.088107	-0.000912	
3790.092107	-0.001043	
3790.094108	-0.000624	
3790.096108	-0.000545	
3790.100105	-0.000833	
3790.102108	-0.001048	
3790.104107	-0.001727	
3790.108121	-0.002413	
3790.112121	-0.002915	
3790.114121	-0.001998	
3790.116122	-0.001919	
3790.118122	-0.002660	
3790.120120	-0.003362	
3790.122121	-0.003585	
3790.124122	-0.003422	
3790.128122	-0.004128	
3790.130123	-0.004971	
3790.132120	-0.005236	
3790.134123	-0.004757	
3790.136122	-0.005415	
3790.138121	-0.005527	
3790.140122	-0.005799	
3790.142120	-0.006827	
3790.144121	-0.006515	
3790.148121	-0.007722	
3790.152120	-0.008402	
3790.154121	-0.009046	
3790.156121	-0.009470	
3790.158121	-0.009626	
3790.160121	-0.009883	
3790.162121	-0.010800	
3790.164120	-0.011242	
3790.168121	-0.012097	
3790.172122	-0.013113	
3790.174123	-0.013036	
3790.176123	-0.013940	
3790.178123	-0.013991	
3790.180124	-0.014822	
3790.182124	-0.015313	
3790.184125	-0.016187	
3790.186125	-0.018657	
3790.190131	-0.017598	
3790.192131	-0.018749	
3790.194131	-0.018777	
3790.196132	-0.019103	
3790.198131	-0.019448	
3790.200132	-0.020604	
3790.202131	-0.021471	
3790.204132	-0.022013	
3790.206132	-0.022565	
3790.210135	-0.023977	
3790.212134	-0.024998	
3790.214135	-0.025324	
3790.216136	-0.025799	
3790.218134	-0.026996	
3790.220135	-0.028387	
3790.222136	-0.029036	
3790.226133	-0.029777	
3790.228135	-0.032910	
3790.230136	-0.034038	
3790.232136	-0.035505	
3790.234141	-0.036630	
3790.236139	-0.037907	
3790.238140	-0.039524	
3790.240139	-0.040719	
3790.242138	-0.042590	
3790.246137	-0.044191	
3790.248139	-0.048366	
3790.252140	-0.050038	
3790.254140	-0.054203	
3790.256139	-0.055858	
3790.258138	-0.058402	
3790.260140	-0.060997	
3790.262140	-0.063164	
3790.266137	-0.066023	
3790.270137	-0.072048	
3790.272140	-0.078038	
3790.274140	-0.080587	
3790.276140	-0.083702	
3790.278140	-0.087271	
3790.280141	-0.090663	
3790.282140	-0.093935	
3790.284141	-0.097318	
3790.288141	-0.102511	
3790.292142	-0.110115	
3790.294142	-0.117857	
3790.296142	-0.122092	
3790.298142	-0.126305	
3790.300141	-0.130658	
3790.302140	-0.135651	
3790.304141	-0.140755	
3790.308144	-0.145376	
3790.312146	-0.155597	
3790.314144	-0.164826	
3790.316145	-0.170078	
3790.318147	-0.176265	
3790.320144	-0.181716	
3790.322145	-0.186971	
3790.324146	-0.192900	
3790.328146	-0.199462	
3790.332147	-0.210881	
3790.334147	-0.223331	
3790.336146	-0.229488	
3790.338146	-0.236415	
3790.340147	-0.242812	
3790.342147	-0.249754	
3790.344147	-0.256860	
3790.348154	-0.264439	
3790.352152	-0.278780	
3790.354153	-0.293716	
3790.356155	-0.301193	
3790.358154	-0.308952	
3790.360154	-0.317209	
3790.362154	-0.324862	
3790.364154	-0.333862	
3790.368152	-0.342612	
3790.372153	-0.358747	
3790.374154	-0.375706	
3790.376153	-0.383771	
3790.378154	-0.391788	
3790.380154	-0.400693	
3790.382154	-0.409448	
3790.384156	-0.415962	
3790.388155	-0.421906	
3790.392155	-0.437188	
3790.394155	-0.451125	
3790.396156	-0.458600	
3790.398155	-0.467508	
3790.400156	-0.474400	
3790.402156	-0.480265	
3790.404155	-0.487457	
3790.408155	-0.495038	
3790.412155	-0.505174	
3790.414154	-0.514585	
3790.416156	-0.518311	
3790.418156	-0.521550	
3790.420156	-0.524260	
3790.422155	-0.527222	
3790.424156	-0.530394	
3790.428157	-0.531549	
3790.432156	-0.532070	
3790.434158	-0.531785	
3790.436157	-0.528301	
3790.438157	-0.526935	
3790.440158	-0.526338	
3790.442158	-0.523441	
3790.444158	-0.517904	
3790.448158	-0.514169	
3790.450158	-0.508171	
3790.452158	-0.500594	
3790.454160	-0.493839	
3790.456157	-0.489818	
3790.458158	-0.483809	
3790.460158	-0.475083	
3790.462157	-0.466528	
3790.464157	-0.461386	
3790.468158	-0.455517	
3790.472158	-0.436779	
3790.474158	-0.424381	
3790.476160	-0.417020	
3790.478157	-0.408507	
3790.480158	-0.401006	
3790.482158	-0.394238	
3790.484162	-0.384983	
3790.488157	-0.373752	
3790.492159	-0.358294	
3790.494159	-0.335742	
3790.496162	-0.326127	
3790.498159	-0.319013	
3790.500159	-0.310054	
3790.502159	-0.297581	
3790.504160	-0.287204	
3790.508165	-0.280091	
3790.512165	-0.259192	
3790.514166	-0.238837	
3790.518163	-0.218276	
3790.520164	-0.205711	
3790.522165	-0.196623	
3790.526163	-0.189143	
3790.530164	-0.163835	
3790.532166	-0.146927	
3790.534166	-0.134690	
3790.536166	-0.120502	
3790.538166	-0.110008	
3790.540165	-0.102162	
3790.542165	-0.091019	
3790.544166	-0.076412	
3790.548167	-0.065750	
3790.552166	-0.046887	
3790.554168	-0.019888	
3790.556168	-0.010443	
3790.558167	-0.000070	
3790.560168	0.015345	
3790.562169	0.027759	
3790.564167	0.036490	
3790.568170	0.045169	
3790.572170	0.071300	
3790.574171	0.090186	
3790.576171	0.102276	
3790.578170	0.116397	
3790.580172	0.125626	
3790.582172	0.133187	
3790.584173	0.143735	
3790.588170	0.156449	
3790.592171	0.172952	
3790.594172	0.195832	
3790.596171	0.205554	
3790.598171	0.211644	
3790.600172	0.220085	
3790.602171	0.232111	
3790.604171	0.241168	
3790.608175	0.247500	
3790.612174	0.266440	
3790.614180	0.283511	
3790.616181	0.290952	
3790.618179	0.300899	
3790.620178	0.311057	
3790.622178	0.318012	
3790.626176	0.324414	
3790.630176	0.343205	
3790.632178	0.356559	
3790.634178	0.365662	
3790.636178	0.376113	
3790.638178	0.383465	
3790.640178	0.389162	
3790.642179	0.396063	
3790.644178	0.403949	
3790.648189	0.408885	
3790.652190	0.419763	
3790.654190	0.436808	
3790.656192	0.442766	
3790.658190	0.448754	
3790.660191	0.456896	
3790.662189	0.463870	
3790.664190	0.468752	
3790.668191	0.473335	
3790.670190	0.485743	
3790.672191	0.489832	
3790.674196	0.494383	
3790.676200	0.498762	
3790.678202	0.504150	
3790.680202	0.505901	
3790.682203	0.507748	
3790.684201	0.510638	
3790.688210	0.511906	
3790.692212	0.512219	
3790.694213	0.513487	
3790.696213	0.511700	
3790.698213	0.509215	
3790.700212	0.507169	
3790.702212	0.504664	
3790.704213	0.500977	
3790.708218	0.495721	
3790.712220	0.486990	
3790.714220	0.476326	
3790.716221	0.470765	
3790.718220	0.463590	
3790.720220	0.456771	
3790.722221	0.449945	
3790.724220	0.441677	
3790.728228	0.433669	
3790.732228	0.418222	
3790.744141	0.367357	
3790.746145	0.358060	
3790.750143	0.351516	
3790.752146	0.332928	
3790.754144	0.325044	
3790.756145	0.319052	
3790.758147	0.311385	
3790.760153	0.301005	
3790.762150	0.294227	
3790.764148	0.287905	
3790.766149	0.279343	
3790.770147	0.271041	
3790.772149	0.257644	
3790.774149	0.251580	
3790.776149	0.245033	
3790.778148	0.238662	
3790.780149	0.232758	
3790.782149	0.226499	
3790.786147	0.221188	
3790.790147	0.208371	
3790.792150	0.198135	
3790.794148	0.193306	
3790.796149	0.188473	
3790.798148	0.184162	
3790.800148	0.178731	
3790.802147	0.174312	
3790.806147	0.169001	
3790.808150	0.164254	
3790.810149	0.155830	
3790.812149	0.151061	
3790.814149	0.147412	
3790.816148	0.144873	
3790.818149	0.139769	
3790.820149	0.135472	
3790.822149	0.131171	
3790.826147	0.128666	
3790.830147	0.119867	
3790.832149	0.112675	
3790.834149	0.110125	
3790.836148	0.105610	
3790.838149	0.102295	
3790.840149	0.098871	
3790.842149	0.096311	
3790.844153	0.091513	
3790.848151	0.087911	
3790.850151	0.082599	
3790.852150	0.078729	
3790.854152	0.075592	
3790.856151	0.074100	
3790.860152	0.068150	
3790.862151	0.065802	
3790.864151	0.063569	
3790.868161	0.060950	
3790.872160	0.054773	
3790.874160	0.052086	
3790.876161	0.050151	
3790.878160	0.047739	
3790.880160	0.045460	
3790.882161	0.044247	
3790.884160	0.042297	
3790.888160	0.039627	
3790.890161	0.036819	
3790.892161	0.035285	
3790.894163	0.034066	
3790.896163	0.033143	
3790.898162	0.032354	
3790.900163	0.031045	
3790.902163	0.029255	
3790.904163	0.028344	
3790.908165	0.026918	
3790.912166	0.024875	
3790.914167	0.023772	
3790.916167	0.024252	
3790.918168	0.022788	
3790.920166	0.021578	
3790.922166	0.021017	
3790.924168	0.021005	
3790.928168	0.019252	
3790.932168	0.017994	
3790.934169	0.018213	
3790.936174	0.017740	
3790.938177	0.016690	
3790.940176	0.016990	
3790.942177	0.016496	
3790.944177	0.015971	
3790.948176	0.014289	
3790.952176	0.014952	
3790.954177	0.013976	
3790.956176	0.014436	
3790.958178	0.013445	
3790.960176	0.013550	
3790.962177	0.012898	
3790.964176	0.012478	
3790.968176	0.012327	
3790.972176	0.010535	
3790.974177	0.011310	
3790.976176	0.011000	
3790.978177	0.010224	
3790.980177	0.009903	
3790.982177	0.010133	
3790.984178	0.009400	
3790.988176	0.008154	
3790.990176	0.007614	
3790.992176	0.006867	
3790.994178	0.007475	
3790.996180	0.007539	
3790.998178	0.007290	
3791.000180	0.006822	
3791.002180	0.005780	
3791.004180	0.005742	
3791.008181	0.005419	
3791.012182	0.004265	
3791.014182	0.004020	
3791.016182	0.004875	
3791.018183	0.003444	
3791.020182	0.002879	
3791.022182	0.003541	
3791.024182	0.002616	
3791.026187	0.002291	
3791.030182	0.001677	
3791.032182	0.001777	
3791.034183	0.001696	
3791.036181	0.001642	
3791.038182	0.001485	
3791.040182	0.001622	
3791.042182	0.001443	
3791.044181	0.001416	
3791.046182	0.000266	
3791.048183	0.000293	
3791.052182	0.000389	
3791.054183	-0.000084	
3791.056182	0.000769	
3791.058182	0.000834	
3791.060182	0.000821	
3791.062182	0.000468	
3791.064182	0.000607	
3791.068180	0.001074	
3791.072180	-0.000253	
3791.074182	0.000314	
3791.076182	0.000488	
3791.078182	0.000788	
3791.080182	0.001140	
3791.082182	0.001140	
3791.084182	0.001118	
3791.086182	0.000833	
3791.090180	-0.000210	
3791.094182	-0.000158	
3791.096183	0.000090	
3791.098181	0.000697	
3791.100182	0.001343	
3791.102182	0.000285	
3791.104182	-0.000050	
3791.108181	0.000176	
3791.112180	-0.000988	
3791.114182	-0.000944	
3791.116182	0.000351	
3791.118186	-0.000108	
3791.120182	-0.001510	
3791.122185	-0.001108	
3791.124186	-0.000497	
3791.126188	-0.001648	
3791.130187	-0.002579	
3791.134188	-0.002568	
3791.136188	-0.002699	
3791.138188	-0.002948	
3791.140188	-0.002558	
3791.142188	-0.003150	
3791.144188	-0.004063	
3791.146188	-0.004199	
3791.150188	-0.004966	
3791.154187	-0.006073	
3791.156188	-0.005302	
3791.158187	-0.006099	
3791.160190	-0.006189	
3791.162188	-0.006956	
3791.164187	-0.007318	
3791.166188	-0.007118	
3791.170188	-0.008690	
3791.172188	-0.009332	
3791.174188	-0.009766	
3791.176189	-0.009568	
3791.178188	-0.009809	
3791.180188	-0.009958	
3791.182187	-0.010028	
3791.184188	-0.010375	
3791.186188	-0.011599	
3791.190186	-0.012392	
3791.194188	-0.012926	
3791.196188	-0.012993	
3791.198189	-0.012872	
3791.200188	-0.013476	
3791.202188	-0.014729	
3791.204188	-0.014796	
3791.206188	-0.015217	
3791.210186	-0.016094	
3791.214188	-0.016987	
3791.216188	-0.016936	
3791.218189	-0.017408	
3791.220188	-0.018985	
3791.222188	-0.019007	
3791.224192	-0.019601	
3791.226192	-0.020155	
3791.228190	-0.022069	
3791.232188	-0.022354	
3791.234188	-0.023136	
3791.236188	-0.023535	
3791.238188	-0.025050	
3791.240188	-0.024429	
3791.242189	-0.026246	
3791.244189	-0.026776	
3791.246190	-0.027894	
3791.248188	-0.029414	
3791.252188	-0.030450	
3791.254190	-0.033523	
3791.256190	-0.033953	
3791.258190	-0.034189	
3791.260190	-0.036322	
3791.262190	-0.037950	
3791.264190	-0.039582	
3791.266189	-0.039753	
3791.268190	-0.042886	
3791.270189	-0.045311	
3791.274191	-0.046419	
3791.276190	-0.049131	
3791.278191	-0.051824	
3791.280189	-0.053405	
3791.282190	-0.054977	
3791.284191	-0.056592	
3791.286190	-0.059217	
3791.290188	-0.062969	
3791.294188	-0.066211	
3791.296191	-0.071802	
3791.298191	-0.074244	
3791.300189	-0.075365	
3791.302190	-0.079070	
3791.304191	-0.082794	
3791.306190	-0.084362	
3791.308192	-0.087502	
3791.312190	-0.090807	
3791.316189	-0.098008	
3791.318190	-0.103116	
3791.320190	-0.107138	
3791.322190	-0.110833	
3791.324192	-0.113427	
3791.326191	-0.116561	
3791.328195	-0.121975	
3791.332192	-0.125346	
3791.336192	-0.132293	
3791.338192	-0.140960	
3791.340192	-0.143835	
3791.342192	-0.148185	
3791.344192	-0.153081	
3791.346192	-0.157851	
3791.348192	-0.161644	
3791.352200	-0.166120	
3791.356199	-0.176984	
3791.358201	-0.185573	
3791.360200	-0.190724	
3791.362199	-0.196982	
3791.364201	-0.202290	
3791.366200	-0.206547	
3791.368200	-0.212476	
3791.372200	-0.220458	
3791.376200	-0.236363	
3791.378200	-0.243270	
3791.380200	-0.248766	
3791.382200	-0.254950	
3791.384200	-0.261206	
3791.386200	-0.268240	
3791.388200	-0.275066	
3791.392200	-0.281881	
3791.396200	-0.295830	
3791.398200	-0.308575	
3791.400201	-0.314446	
3791.402200	-0.322207	
3791.404200	-0.329113	
3791.406199	-0.335680	
3791.408200	-0.341795	
3791.412199	-0.349203	
3791.416200	-0.362995	
3791.418200	-0.373928	
3791.420200	-0.380228	
3791.422200	-0.385866	
3791.424200	-0.391240	
3791.426202	-0.395944	
3791.428203	-0.401850	
3791.432199	-0.407185	
3791.436200	-0.413495	
3791.438200	-0.419470	
3791.440204	-0.421312	
3791.442200	-0.423772	
3791.444200	-0.425488	
3791.446200	-0.427620	
3791.448200	-0.430085	
3791.452199	-0.431520	
3791.456200	-0.434195	
3791.458202	-0.434541	
3791.460201	-0.433396	
3791.462200	-0.433113	
3791.464200	-0.432669	
3791.466200	-0.431802	
3791.468201	-0.429843	
3791.472199	-0.429163	
3791.476201	-0.423734	
3791.478201	-0.420448	
3791.480200	-0.418569	
3791.482200	-0.416501	
3791.484200	-0.413443	
3791.486200	-0.409943	
3791.488200	-0.405842	
3791.492203	-0.402867	
3791.496203	-0.392795	
3791.498204	-0.381437	
3791.500204	-0.375826	
3791.502204	-0.369761	
3791.504204	-0.362728	
3791.506204	-0.356425	
3791.508204	-0.351199	
3791.512216	-0.343840	
3791.516215	-0.329162	
3791.518216	-0.312981	
3791.520217	-0.303980	
3791.522216	-0.295557	
3791.524215	-0.289524	
3791.526215	-0.279832	
3791.528221	-0.268916	
3791.530223	-0.261163	
3791.534222	-0.253656	
3791.536223	-0.232471	
3791.538222	-0.222191	
3791.540223	-0.214456	
3791.542222	-0.204580	
3791.544223	-0.192482	
3791.546222	-0.182337	
3791.548222	-0.173615	
3791.550222	-0.165009	
3791.554222	-0.152935	
3791.556222	-0.132579	
3791.558224	-0.122631	
3791.560222	-0.109995	
3791.562222	-0.097958	
3791.564222	-0.088179	
3791.566222	-0.078479	
3791.568222	-0.066348	
3791.570222	-0.055835	
3791.572230	-0.044979	
3791.576224	-0.035981	
3791.578224	-0.011630	
3791.580224	0.000482	
3791.582224	0.009264	
3791.584224	0.020821	
3791.586224	0.031236	
3791.588224	0.042627	
3791.592222	0.050679	
3791.596222	0.070071	
3791.598225	0.088142	
3791.600224	0.096900	
3791.602225	0.107814	
